timestamp,slotA,slotB
339718,690,
339718,2114,
339718,703,
339719,2115,
339719,701,
339719,2116,
339720,699,
339720,2140,
339720,699,
339720,2129,
339721,708,
339721,2117,
339721,709,
339722,2126,
339722,711,
339722,2120,
339723,709,
339723,2116,
339723,709,
339723,2121,
339723,698,
339724,2114,
339724,716,
339724,2126,
339724,712,
339725,2122,
339725,690,
339725,2124,
339726,701,
339726,2121,
339726,692,
339726,2115,
339727,711,
339727,2126,
339727,720,
339727,2124,
339728,697,
339728,2120,
339728,718,
339728,2109,
339729,694,
339729,2109,
339729,703,
339730,2108,
339730,700,
339730,2120,
339730,708,
339731,2128,
339731,697,
339731,2131,
339731,695,
339732,2115,
339732,694,
339732,2126,
339732,705,
339733,2118,
339733,705,
339733,2114,
339734,706,
339734,2103,
339740,696,
339740,2109,
339740,693,
339740,2126,
339740,719,
339741,2135,
339741,707,
339741,2114,
339742,689,
339742,2123,
339742,701,
339742,2137,
339743,708,
339743,2136,
339743,693,
339743,2133,
339744,707,
339744,2121,
339744,705,
339744,2113,
339745,700,
339745,2111,
339745,704,
339746,2134,
339746,702,
339746,2107,
339746,707,
339747,2112,
339747,701,
339747,2136,
339747,713,
339748,2111,
339748,698,
339748,2125,
339748,700,
339749,2126,
339749,716,
339749,2128,
339750,697,
339750,2131,
339750,709,
339750,2114,
339751,700,
339751,2124,
339751,689,
339751,2124,
339752,713,
339752,2136,
339752,704,
339752,2121,
339753,712,
339753,2118,
339753,719,
339754,2129,
339754,712,
339754,2116,
339754,711,
339755,2126,
339755,704,
339755,2123,
339755,703,
339756,2135,
339756,706,
339756,2117,
339756,711,
339757,2116,
339757,713,
339757,2119,
339758,691,
339758,2124,
339758,706,
339758,2116,
339759,696,
339759,2128,
339759,680,
339759,2118,
339760,705,
339760,2123,
339760,702,
339760,2126,
339761,694,
339761,2135,
339761,695,
339762,2120,
339762,702,
339762,2101,
339762,700,2118
339763,706,2117
339763,697,2123
339763,692,2127
339767,687,2129
339778,720,2140
339789,699,2122
339800,709,2124
339812,709,2127
339823,705,2115
339834,702,2112
339845,706,2098
339857,700,2116
339868,697,2126
339879,710,2122
339890,718,2122
339901,700,2139
339912,693,2116
339924,713,2119
339940,708,2121
339946,708,2134
339957,697,2130
339968,689,2120
339979,706,2121
339991,697,2127
340002,708,2121
340013,693,2127
340024,685,2136
340039,702,2121
340047,702,2120
340058,704,2121
340069,702,2129
340080,695,2125
340091,696,2123
340103,706,2113
340114,698,2123
340125,698,2115
340140,693,2116
340147,684,2124
340159,702,2118
340170,701,2136
340181,689,2121
340192,705,2124
340203,695,2112
340215,714,2118
340226,703,2104
340240,705,2130
340248,716,2123
340259,703,2114
340270,681,2112
340282,706,2125
340293,697,2127
340304,695,2123
340315,716,2103
340326,714,2118
340339,703,2110
340349,704,2129
340360,704,2124
340371,710,2120
340382,708,2116
340394,707,2120
340405,702,2144
340416,711,2130
340427,695,2129
340440,692,2127
340449,698,2111
340461,705,2119
340472,699,2113
340483,699,2117
340494,700,2118
340505,696,2125
340516,704,2125
340528,702,2125
340539,697,2115
340550,701,2119
340561,690,2122
340573,703,2125
340584,704,2104
340595,697,2122
340606,704,2117
340617,714,2111
340628,706,2128
340640,706,2109
340651,704,2129
340662,712,2122
340673,698,2124
340684,696,2116
340696,695,2129
340707,706,2121
340718,723,2121
340729,707,2112
340740,686,2110
340752,707,2125
340763,709,2123
340774,700,2123
340785,708,2126
340796,696,2113
340808,707,2117
340819,699,2129
340830,707,2116
340841,701,2129
340852,706,2108
340863,706,2113
340874,698,2104
340886,699,2115
340897,704,2120
340908,700,2135
340919,708,2121
340930,718,2122
340942,709,2122
340953,718,2103
340964,706,2134
340975,715,2129
340986,687,2110
340998,713,2130
341009,707,2112
341020,703,2128
341031,694,2121
341042,694,2132
341054,699,2117
341065,705,2127
341076,695,2115
341087,711,2113
341098,703,2115
341110,707,2124
341121,715,2104
341132,710,2121
341143,705,2114
341154,704,2132
341165,707,2127
341177,689,2121
341188,702,2126
341199,705,2126
341210,697,2118
341221,697,2109
341233,710,2122
341244,704,2119
341255,701,2125
341266,696,2122
341277,683,2110
341289,710,2118
341300,718,2128
341311,706,2114
341322,704,2125
341333,704,2122
341344,696,2118
341356,708,2113
341367,703,2122
341378,698,2123
341389,713,2124
341400,713,2112
341411,711,2124
341423,714,2120
341434,721,2122
341445,714,2127
341456,711,2115
341467,712,2120
341479,701,2106
341490,698,2122
341501,706,2115
341512,709,2118
341523,710,2116
341540,705,2113
341546,701,2103
341557,708,2116
341568,709,2119
341579,714,2121
341591,719,2116
341602,717,2127
341613,716,2114
341624,691,2111
341640,713,2108
341647,709,2109
341658,719,2121
341669,719,2115
341680,720,2102
341691,705,2126
341703,719,2122
341714,715,2096
341725,719,2135
341740,715,2118
341747,710,2111
341758,709,2107
341770,697,2116
341781,728,2118
341792,703,2114
341803,705,2114
341814,708,2108
341825,708,2122
341840,702,2111
341848,710,2117
341859,712,2106
341870,715,2120
341881,721,2125
341893,717,2121
341904,716,2122
341915,712,2103
341926,716,2123
341940,709,2115
341948,710,2122
341960,696,2114
341971,698,2116
341982,718,2118
341993,727,2143
342004,699,2129
342016,722,2107
342027,733,2140
342040,708,2147
342049,714,2159
342060,736,2147
342072,723,2130
342083,722,2156
342094,716,2215
342105,725,2196
342116,740,2220
342127,755,2256
342140,768,2282
342150,764,2284
342161,774,2336
342172,801,2373
342184,799,2433
342195,823,2458
342206,826,2500
342217,859,2554
342228,874,2589
342240,887,2634
342251,927,2687
342262,921,2729
342273,944,2789
342284,974,2846
342295,980,2920
342307,1020,2993
342318,1051,3071
342329,1077,3170
342340,1115,3278
342351,1181,3414
342362,1217,3568
342374,1291,3732
342385,1373,3980
342396,1481,4240
342407,1625,4597
342418,1824,5024
342430,2079,5618
342441,2413,6384
342452,2875,7380
342463,3487,8642
342474,4268,10230
342486,5294,12267
342497,6471,14537
342508,7543,16570
342519,8300,17997
342530,8634,18700
342541,8615,18906
342553,8406,18732
342564,8007,18136
342575,7288,16880
342586,6316,15047
342597,5252,13039
342609,4407,11333
342620,3834,10172
342631,3512,9509
342642,3381,9197
342653,3349,9128
342664,3428,9331
342676,3603,9836
342687,3928,10748
342698,4387,12019
342709,4915,13519
342721,5304,14734
342732,5577,15359
342743,5890,15781
342754,6257,16268
342765,6656,16924
342776,6997,17532
342788,7257,18007
342799,7369,18313
342810,7390,18500
342821,7307,18508
342832,7097,18445
342844,6902,18338
342855,6673,18400
342866,6485,18442
342877,6327,18299
342888,6162,18360
342899,6084,18875
342911,6246,20352
342922,7145,24912
342933,9886,37218
342944,14798,57988
342955,21361,83491
342967,32175,121082
342978,58195,129886
342989,118524,130542
343000,142772,134941
343011,144399,141508
343022,147844,146744
343034,105955,151769
343045,36347,156834
343056,18730,160122
343067,16813,160958
343078,16616,161108
343090,16637,161312
343101,17260,161307
343112,17210,161393
343123,17529,161357
343140,18091,161182
343146,18756,160870
343157,19626,160558
343168,20158,160436
343179,21209,160431
343190,23394,160401
343201,47544,159503
343213,88969,159224
343224,97008,159198
343240,67643,159558
343246,50560,159989
343257,50534,159692
343269,54374,159305
343280,51963,159170
343291,44372,159452
343302,37170,159481
343313,22561,160087
343325,17699,159984
343340,17303,160069
343347,16851,160028
343358,16426,159609
343369,15811,159326
343380,15547,158958
343392,15489,158888
343403,15533,158501
343414,15656,158112
343425,15608,157527
343440,15693,157199
343448,15969,156641
343459,16199,156118
343470,16331,155353
343481,16412,154688
343492,16830,153978
343504,16917,153298
343515,17205,152467
343526,17362,151725
343540,17520,150589
343548,17537,149560
343559,17641,148653
343571,17916,147440
343582,17965,146378
343593,18287,145472
343604,18272,144723
343615,18606,144250
343627,18574,143738
343639,18644,142991
343649,18868,142050
343660,18793,141756
343671,19257,140862
343682,19294,140444
343694,19681,139675
343705,19595,138969
343716,19924,138631
343727,19903,138058
343740,19931,137600
343749,19958,137134
343761,20503,136614
343772,20486,136242
343783,20604,135715
343794,20054,135248
343805,20750,134790
343817,21067,134378
343828,20999,134033
343839,21102,133688
343850,21528,133461
343861,21461,132973
343873,21380,132879
343884,21721,132561
343895,21854,132719
343906,21691,132730
343917,21649,132489
343928,21707,132261
343940,21953,132185
343951,22156,131675
343962,22248,131391
343973,22347,131123
343984,22369,131011
343995,22419,130435
344007,22663,130278
344018,22878,130017
344029,22867,129770
344040,22944,129899
344051,23193,129296
344062,23227,129053
344074,23381,128910
344085,23393,128728
344096,23631,128527
344107,23699,128191
344118,23862,128093
344130,23874,127862
344141,23587,127800
344152,23734,127825
344163,23851,127504
344174,23951,127121
344185,24103,127221
344197,24204,126898
344208,24340,126915
344219,23889,126740
344230,24387,126578
344241,24271,126604
344252,24066,126217
344264,24573,126321
344275,24466,126269
344286,24655,125987
344297,24696,125898
344308,24934,125849
344319,24731,125747
344331,24923,125590
344342,24921,125418
344353,24859,125251
344364,25301,125028
344375,25221,125028
344387,25275,124895
344398,25287,124723
344409,25198,124876
344420,25144,124522
344431,25304,124563
344442,25470,124488
344454,25701,123851
344465,25645,124533
344476,25727,124210
344487,25583,124280
344498,25500,124916
344509,25347,126592
344521,25253,128843
344532,25198,131095
344543,25405,132039
344554,24886,132393
344565,25324,132196
344576,25399,132338
344588,25402,131781
344599,25549,131117
344610,25810,130625
344621,25746,129681
344632,25676,128476
344643,25777,127434
344655,26125,126737
344666,26033,126098
344677,26222,125556
344688,26343,125099
344700,26653,124468
344711,26540,124630
344722,26430,124250
344733,26699,123972
344744,26452,123921
344755,26547,123628
344767,26693,123541
344778,26735,123332
344789,26869,123042
344800,26865,123093
344811,26962,122954
344822,26960,122697
344833,26903,122545
344845,27121,122416
344856,27107,122350
344867,27001,122319
344878,27416,122234
344889,27100,121953
344900,27278,122066
344912,27396,121904
344923,27383,121806
344934,27463,121659
344945,27676,121623
344956,27826,121385
344968,27700,121427
344979,27753,121461
344990,27845,121235
345001,27921,121455
345012,27764,121222
345024,27991,121316
345040,28046,120994
345046,28176,121176
345057,28112,121136
345068,27855,121582
345079,27883,122790
345091,27623,125473
345102,27275,128030
345113,27508,129691
345124,27708,130359
345140,27372,130823
345146,27597,131070
345158,27598,130888
345169,27664,130241
345180,27687,129668
345191,27951,128985
345202,28131,127560
345213,28180,126528
345224,28439,125245
345240,28373,124252
345247,28499,123410
345258,28601,122773
345269,28667,122201
345280,28567,121968
345292,28598,121811
345303,28622,121740
345314,28806,121511
345325,28949,121369
345339,29025,121296
345347,28983,120998
345359,29054,120967
345370,29493,120784
345381,29030,120617
345392,29380,120590
345403,29182,120771
345415,29165,120492
345426,29563,120448
345440,29272,120342
345448,29525,120376
345459,29587,120039
345470,29592,120073
345482,29803,120244
345493,29383,120187
345504,29745,119679
345515,29822,119835
345526,29919,119812
345539,29664,119543
345549,29805,119635
345560,29715,119609
345571,29889,119435
345582,30084,119224
345593,29923,119469
345604,30143,119420
345616,30266,119241
345627,30127,119432
345640,30040,119923
345649,30276,122078
345660,29713,126039
345671,29436,128875
345683,29346,130576
345694,29477,131997
345705,29154,132771
345716,29217,133806
345727,29071,134102
345739,28739,133658
345750,29590,132886
345761,29255,132638
345772,28969,131509
345783,29291,130557
345794,29470,129619
345805,29295,128654
345817,29332,127445
345828,29767,126298
345840,29653,124972
345850,30123,123748
345861,30081,122884
345873,30061,122169
345884,30391,121813
345895,30505,121333
345906,30465,121388
345917,30477,120913
345928,30352,120870
345940,30643,120472
345951,30679,120530
345962,30498,120632
345973,30381,120422
345984,30640,120310
345995,30656,120263
346007,30877,119961
346018,31035,119904
346029,31044,119891
346040,30710,119530
346051,31113,119242
346062,31248,119449
346074,31064,119143
346085,31133,119127
346096,31292,119016
346107,31242,118795
346118,31278,118854
346129,31698,119088
346141,31346,118600
346152,31490,118419
346163,31639,118494
346174,31445,118399
346185,31729,118316
346196,31727,118407
346208,31513,118170
346219,31602,118362
346230,31576,118683
346241,31745,120222
346252,31335,123754
346263,30904,127297
346275,30660,129772
346286,30709,131570
346297,30494,133226
346308,30095,134810
346319,29833,135217
346331,29730,135051
346342,29831,134573
346353,30171,133760
346364,30394,132946
346375,30176,131954
346386,30257,131037
346398,30406,129860
346409,30477,129140
346420,30540,128384
346431,30733,127065
346442,31044,125639
346453,30970,124384
346465,31100,123558
346476,31373,122608
346487,31369,122272
346498,31523,121675
346509,31633,121427
346521,31603,120771
346532,31472,120716
346543,31577,120713
346554,31594,120682
346565,31757,120391
346576,31695,120347
346588,31682,120268
346599,31659,120303
346610,31792,119946
346621,31865,119992
346632,31673,119804
346643,31897,119438
346655,32005,119375
346666,32131,119242
346677,32167,118928
346688,32201,118774
346699,32444,118522
346710,32323,118353
346721,32585,118484
346733,32478,118032
346744,32439,118061
346755,32735,117730
346766,32793,117649
346777,32701,117819
346788,32536,117506
346800,32742,117325
346811,32834,117123
346822,32751,117359
346833,32986,117147
346844,33023,117055
346856,32852,117339
346867,32598,118753
346878,32367,121569
346889,32087,125679
346900,31983,128631
346911,31858,130877
346923,31527,132922
346934,30932,134441
346945,30758,135449
346956,30727,135251
346967,30652,134458
346978,31017,134059
346989,30800,133073
347001,30930,132231
347012,31693,131130
347023,31385,130445
347034,31139,129072
347045,31324,128175
347057,31481,126880
347068,31787,125790
347079,31944,124713
347090,31769,123392
347101,32071,122494
347112,32244,121904
347124,32276,121540
347140,32355,121159
347146,32461,120909
347157,32537,120736
347168,32281,120474
347179,32379,120748
347191,32569,120484
347202,32473,120398
347213,32694,120528
347224,32436,120413
347240,32420,120204
347246,32608,120112
347258,32720,119952
347269,32584,119541
347280,32499,119400
347291,32921,118963
347302,32739,118779
347313,32636,118996
347325,32956,118312
347339,33014,118159
347347,32943,117959
347358,33511,117750
347369,33284,117569
347380,33162,117433
347392,33209,117283
347403,33358,117120
347414,33621,117284
347425,33455,116876
347440,33577,116763
347447,33780,116686
347459,33692,116502
347470,33520,116438
347481,33593,116482
347492,33879,116402
347503,33769,116429
347514,33467,117897
347526,33096,120640
347540,32879,124937
347548,32815,127756
347559,32306,130164
347570,32178,132697
347581,31876,134397
347593,31417,135253
347604,31021,135323
347615,31338,134687
347626,31155,133935
347640,31482,132858
347648,31479,132072
347660,31532,131040
347671,31878,129929
347682,32002,128919
347693,31776,127885
347704,32165,126615
347716,32292,125523
347727,32309,124315
347740,32770,123104
347749,32720,122178
347760,32910,121471
347771,33029,121031
347783,33248,120798
347794,32950,120690
347805,32876,120394
347816,33031,120499
347827,33159,120427
347840,33283,120430
347849,33002,120569
347861,33192,120751
347872,33231,120340
347883,33174,120637
347894,33067,120529
347905,33020,120606
347917,33145,120251
347928,33291,119950
347940,33576,119726
347950,33275,119553
347961,33418,119120
347972,33567,118873
347984,33792,118478
347995,33828,118149
348006,33793,117805
348017,33849,117609
348028,34016,117764
348040,34176,117200
348051,34089,116888
348062,34134,116813
348073,34197,116486
348084,34210,116614
348095,34264,116267
348106,34454,116351
348118,34480,116096
348129,34473,116349
348140,34224,116225
348151,34267,117212
348162,34030,119337
348173,33634,122595
348185,33345,126521
348196,33194,129431
348207,32792,131982
348218,32061,134049
348229,31950,135046
348240,31566,135052
348252,31940,134752
348263,31835,134017
348274,31876,133101
348285,32091,132255
348296,32102,131044
348307,32311,129923
348318,32249,129051
348330,32421,127848
348341,32641,126838
348352,32827,125472
348363,32683,124107
348374,33202,122799
348386,33242,121874
348397,33408,121262
348408,33252,120799
348419,33496,120500
348430,33810,120026
348441,33688,119753
348453,33955,119652
348464,33493,119768
348475,33843,119858
348486,33776,119902
348497,33786,120011
348508,33477,120237
348519,33694,120271
348531,33814,120152
348542,33844,119903
348553,33924,119877
348564,33989,119495
348575,34163,119096
348586,34176,118775
348598,34138,118430
348609,34223,118306
348620,34239,118065
348631,34159,117650
348642,34349,117429
348653,34391,117107
348665,34504,116981
348676,34535,116688
348687,34709,116826
348698,34773,116394
348709,34670,116207
348721,35026,115895
348732,34570,115926
348743,35006,115529
348754,35079,115671
348765,35222,115621
348776,35128,115653
348788,34746,116570
348799,34614,119163
348810,34307,122881
348821,34081,126298
348832,33442,129641
348843,33205,132370
348855,32685,134495
348866,32305,135370
348877,32121,135481
348888,32160,134985
348899,32158,134395
348910,31984,133760
348922,32260,132701
348933,32370,131943
348944,32406,130701
348955,32456,129913
348966,32646,128597
348977,32941,127468
348989,33036,126219
349000,33196,125190
349011,33491,123899
349022,33590,122991
349033,33877,121924
349044,33851,121365
349056,33904,120933
349067,33876,120324
349078,34211,120311
349089,34083,119867
349100,34035,120230
349111,34096,120524
349123,34218,120167
349134,33964,120546
349145,34210,120331
349156,34034,120349
349167,34106,120495
349178,34527,120284
349190,34285,120042
349201,34208,120073
349212,34360,119644
349223,34297,119332
349234,34551,119066
349245,34483,118588
349257,34512,118174
349268,34670,117713
349279,34764,117579
349290,34906,117178
349301,35032,117108
349312,35097,116422
349324,35022,116593
349340,35305,116254
349346,35148,116166
349357,35239,115859
349368,35291,115920
349379,35490,115531
349391,35460,115594
349402,35616,115466
349413,35394,115266
349424,35500,115177
349439,35509,115212
349446,35538,115688
349457,35084,117980
349469,34700,121512
349480,34268,125546
349491,34327,129019
349502,33697,131897
349513,33226,134185
349524,32828,135247
349540,32535,135282
349547,32528,135120
349558,32250,134617
349569,32519,133748
349580,32547,132689
349591,32538,131709
349603,32838,130769
349614,32923,129623
349625,33237,128546
349640,33486,127449
349647,33358,126406
349659,33517,125484
349670,33686,124251
349681,33931,123044
349692,34005,122147
349703,34229,121379
349714,34244,121008
349725,34385,120555
349740,34347,120075
349748,34647,120246
349759,34557,120182
349770,34652,120164
349781,34623,120272
349792,34801,120376
349804,34837,120439
349815,34487,120642
349826,34720,120576
349840,34387,120617
349848,34719,120513
349859,34858,120389
349871,34732,120472
349882,35055,120267
349893,34934,119485
349904,34777,119265
349915,34828,118916
349926,35123,118534
349940,35279,118417
349949,35242,117799
349960,35316,117426
349971,35510,117174
349982,35452,117182
349993,35371,116794
350004,35564,116626
350016,35754,116294
350027,35920,115981
350040,35911,115787
350049,35880,115745
350060,35946,115447
350071,36041,115141
350083,36260,115359
350094,36045,115183
350105,36242,115170
350116,36029,115775
350127,35527,118066
350140,35087,121857
350150,34820,125402
350161,34747,129011
350172,34005,132025
350183,33403,134039
350194,33104,135011
350205,33002,134897
350217,32948,134693
350228,32900,134588
350240,33130,133241
350250,33155,132504
350261,32945,131466
350272,33110,130636
350284,33278,129446
350295,33730,128534
350306,33824,127246
350317,33851,126048
350328,33924,124882
350339,34072,123742
350351,34311,122254
350362,34543,121943
350373,34796,121072
350384,34787,120414
350395,34868,120090
350406,34803,119826
350418,35082,119495
350429,34985,119463
350440,34950,119695
350451,35105,119753
350462,35178,119948
350473,35148,120067
350485,35162,120258
350496,35002,120216
350507,35208,120340
350518,35127,120029
350529,35098,119931
350540,35428,119799
350552,35522,119674
350563,35345,119316
350574,35591,118835
350585,35359,118654
350596,35586,118359
350607,35462,117800
350619,35714,117216
350630,35802,116823
350641,35979,116784
350652,36015,116348
350663,35965,116249
350674,36194,115938
350685,36047,115660
350697,36074,115742
350708,36303,115274
350719,36308,115092
350730,36483,115053
350741,36601,114753
350752,36355,114773
350764,36692,114579
350775,36595,114713
350786,36404,115474
350797,35869,117351
350808,35634,121045
350820,35535,124351
350831,35317,128048
350842,34529,131260
350853,33901,132841
350864,33784,133911
350875,33497,134140
350886,33220,133694
350898,33141,133402
350909,33381,132639
350920,33410,131668
350931,33799,131090
350942,33555,129926
350953,33854,128468
350965,33860,127358
350976,34214,126197
350987,34189,125073
350998,34564,123667
351009,35009,122364
351021,35156,121530
351032,34929,120824
351043,35258,120282
351054,35081,119761
351065,35316,119446
351076,35558,119244
351087,35483,119278
351099,35479,119295
351110,35395,119573
351121,35379,119692
351132,35318,119833
351143,35467,120121
351154,35606,120180
351166,35525,120381
351177,35552,120111
351188,35684,120300
351199,35782,120043
351210,35601,120099
351221,35723,119884
351233,35679,119407
351244,35912,119212
351255,35801,118897
351266,35825,118528
351277,35963,118045
351288,35763,117598
351299,36181,117235
351311,36400,116817
351322,36312,116453
351333,36301,116246
351344,36246,116026
351355,36574,115837
351366,36637,115546
351378,36877,115299
351389,36724,115155
351400,36676,114919
351411,36671,114850
351422,36775,115364
351433,36461,116841
351445,35913,119753
351456,35739,123159
351467,35613,126678
351478,35174,130301
351489,34188,132434
351500,33848,133842
351512,33313,134178
351523,33709,134048
351534,33511,133525
351545,33370,132908
351556,33416,132411
351567,33604,131400
351579,33599,130550
351590,34088,129434
351601,34119,128433
351612,34409,127202
351623,34403,126308
351640,34640,124948
351646,34559,123738
351657,35038,122442
351668,35037,121519
351679,35189,120822
351690,35238,120403
351701,35395,120209
351713,35566,119745
351724,35518,119577
351740,35487,119618
351746,35446,119966
351757,35566,119942
351768,35436,120133
351780,35579,120163
351791,35576,120470
351802,35128,120576
351813,35367,120475
351824,35572,120512
351840,35685,120352
351846,35551,120474
351858,35657,120004
351869,35726,119927
351880,35590,119426
351891,36039,118814
351902,35968,118365
351914,36025,118227
351925,36046,117781
351940,36010,117426
351947,36245,117449
351958,36289,116864
351969,36204,116537
351980,36573,116126
351992,36487,116027
352003,36638,115631
352014,36735,115276
352025,36751,115115
352040,36738,114865
352047,36611,114610
352059,36815,115032
352070,36636,116183
352081,36000,119536
352092,36038,122804
352103,35609,126912
352114,35174,130932
352126,34319,133062
352140,33637,134824
352148,33354,135126
352159,33156,135283
352170,32958,134689
352181,32861,134370
352193,33271,133548
352204,33099,132763
352215,33146,132421
352226,33229,131591
352240,33311,130665
352248,33456,129834
352260,33522,128916
352271,33802,127751
352282,33749,127302
352293,33872,126208
352304,34326,125225
352315,34212,124616
352327,34279,123895
352340,34604,123462
352349,34629,123260
352360,34678,123116
352371,34970,123007
352382,34748,123292
352393,34651,123289
352405,34671,123614
352416,34646,123757
352427,34973,123902
352439,34886,124203
352449,34873,123907
352460,34924,123952
352472,34683,123896
352483,34745,123522
352494,34859,123212
352505,34786,122926
352516,34958,122568
352527,35022,122156
352540,35071,121910
352550,35224,121467
352561,35053,121069
352572,35258,120807
352583,35406,120235
352594,35465,120002
352606,35482,119364
352617,35455,118899
352628,35712,118434
352640,35804,118176
352650,35820,117798
352661,35918,117237
352673,35970,117150
352684,35970,116865
352695,35836,117290
352706,35649,119060
352717,35413,122066
352728,35081,125535
352740,34947,129485
352751,33990,132272
352762,33616,134240
352773,33075,135173
352784,32667,135388
352795,32669,135233
352806,32799,134642
352818,32722,134233
352829,32760,133417
352840,32673,132683
352851,32747,132000
352862,33140,131088
352873,32959,130222
352885,33111,129350
352896,33071,128500
352907,33522,127388
352918,33744,126230
352929,33822,125373
352940,33767,124520
352952,33741,123617
352963,34174,122995
352974,34158,122616
352985,34301,122542
352996,34355,122336
353007,34407,122479
353019,34391,122258
353030,34549,122423
353041,34506,122738
353052,34663,122579
353063,34425,123079
353074,34504,123154
353086,34489,123359
353097,34760,123311
353108,34598,123161
353119,34684,122828
353130,34755,122701
353142,34734,122136
353153,34802,121858
353164,34729,121642
353175,34790,121224
353186,35009,120996
353197,34857,120457
353208,35101,120469
353220,35212,119838
353231,35511,119291
353242,35369,119134
353253,35417,118701
353264,35283,118432
353275,35384,118032
353287,35293,117921
353298,35727,117489
353309,35527,117205
353320,35749,117141
353331,35706,118030
353342,35528,120057
353354,35183,122668
353365,34798,126696
353376,34571,130435
353387,33563,133023
353398,33040,134974
353409,32627,135588
353420,32353,135782
353432,32331,135490
353443,32405,135070
353454,32259,134677
353465,32282,133979
353476,32593,133134
353487,32341,132698
353499,32576,131977
353510,32653,130959
353521,32828,130391
353532,33050,129266
353543,33028,128283
353554,33267,127295
353566,33467,126573
353577,33628,125501
353588,33744,125189
353599,33739,124778
353610,33798,124980
353621,33823,124558
353633,33818,124844
353644,33964,125037
353655,33877,125355
353666,33762,125881
353677,33848,126314
353688,33912,126689
353700,33666,126850
353711,33733,126985
353722,33626,127157
353733,33569,127076
353744,33739,127074
353755,33721,126641
353767,33554,126485
353778,33848,126084
353789,33736,125777
353800,34002,125513
353811,33992,125269
353822,34027,124676
353833,34097,124390
353845,34156,123773
353856,34242,123284
353867,34251,122787
353878,34389,122239
353889,34542,121776
353900,34700,121321
353912,34751,121225
353923,34677,120990
353934,34763,121479
353945,34784,122763
353956,34534,125648
353968,34034,129405
353979,33389,132424
353990,32759,134870
354001,32381,136211
354012,32136,136808
354023,31883,136805
354040,31805,136788
354046,31768,136538
354057,31689,136288
354068,31690,136017
354079,31604,135332
354090,31442,134713
354101,31894,133729
354113,31764,133139
354124,32042,132305
354140,32072,131762
354146,32156,130791
354157,32383,130256
354168,32271,129701
354180,32472,129235
354191,32457,129134
354202,32445,128980
354213,32515,128875
354224,32640,129255
354240,32514,129580
354246,32557,129934
354258,32278,130478
354269,32448,130643
354280,32477,130955
354291,32295,131143
354302,32287,131301
354314,32316,131315
354325,32236,131194
354340,32297,131009
354347,32154,130848
354358,32300,130772
354369,32318,130543
354381,32232,130493
354392,32124,130104
354403,32299,129866
354414,32377,129642
354425,32519,129348
354440,32506,129256
354447,32568,128666
354459,32685,128512
354470,32754,128237
354481,32817,127853
354492,32815,127724
354503,32751,128028
354514,32749,129081
354526,32575,131279
354539,32257,133405
354548,31711,136117
354559,31060,137478
354570,30788,138319
354581,30641,138813
354593,30371,139032
354604,30202,139189
354615,29761,139173
354626,29536,139097
354640,29553,138835
354648,29309,138489
354659,29148,138342
354671,29481,137931
354682,29258,137333
354693,29274,136889
354704,29196,136273
354715,29228,135762
354726,29249,134715
354740,29373,133959
354749,29598,133482
354760,29505,132749
354771,29508,132217
354782,29590,132097
354793,29680,131896
354805,29706,131816
354816,29854,131379
354827,29800,131854
354839,29947,131547
354849,29444,131783
354860,29904,131824
354871,29692,131771
354883,29866,131565
354894,29890,131393
354905,29934,131178
354916,30063,130552
354927,29982,130627
354940,30274,130274
354950,30250,129874
354961,30565,129579
354972,30284,129266
354983,30409,129009
354994,30485,128489
355005,30523,128329
355017,30586,127756
355028,30789,127291
355039,30921,126845
355050,30861,126497
355061,31036,125883
355072,31232,125656
355084,31121,125665
355095,31102,126421
355106,31051,128003
355117,30625,130907
355128,30317,134020
355140,29871,137065
355150,29273,138619
355162,28825,139275
355173,28656,139653
355184,28510,139652
355195,28284,139564
355206,27890,139163
355217,28106,139049
355229,27860,138584
355240,28044,138133
355251,28043,137641
355262,27990,137066
355273,28201,136278
355284,28081,135453
355296,28050,134332
355307,28249,133345
355318,28585,132477
355329,28848,131668
355340,28741,131220
355351,28744,130918
355363,28924,130511
355374,28850,130233
355385,28969,130041
355396,29008,130174
355407,29098,130234
355418,29113,130075
355430,28908,130250
355441,29287,130450
355452,29201,130535
355463,29179,130554
355474,29191,130704
355485,29210,130405
355497,29303,130377
355508,29224,130328
355519,29347,130126
355530,29249,129984
355541,29360,129572
355552,29507,129243
355563,29652,128925
355575,29717,128487
355586,29826,128080
355597,29883,127745
355608,29912,127385
355619,29991,126936
355630,30034,126784
355642,30186,126047
355653,30190,125667
355664,30347,125195
355675,30160,124901
355686,30681,124706
355697,30696,124208
355709,30560,124484
355720,30587,125632
355731,30451,128155
355742,30052,131347
355753,29567,135037
355764,28772,137871
355776,28323,139081
355787,28162,139681
355798,28037,139908
355809,27626,139767
355820,27700,139735
355831,27806,139466
355843,27595,139059
355854,27599,138520
355865,27504,137844
355876,27476,137121
355887,27783,136279
355898,27975,135277
355909,27930,134435
355921,28018,133535
355932,27948,132750
355943,28257,131925
355954,28454,131261
355965,28838,131312
355976,28479,130617
355988,28547,130462
355999,28820,130183
356010,28694,130201
356021,28938,130167
356032,28798,130535
356043,28761,130664
356055,28960,131025
356066,28877,131256
356077,28925,131144
356088,28755,131312
356099,28989,131391
356110,28822,131186
356122,28840,131155
356133,28999,130851
356144,28853,130638
356155,29010,130444
356166,28930,130176
356177,29276,129872
356188,29149,129458
356200,29212,129105
356211,29560,128763
356222,29340,128391
356233,29494,127914
356244,29628,127555
356255,29883,127112
356267,29879,126674
356278,29882,126413
356289,30023,126310
356300,30359,126293
356311,30020,126156
356322,30195,126125
356334,30113,125884
356345,30317,125866
356356,30276,126502
356367,30099,128054
356378,29875,130729
356389,29569,133615
356401,29045,137079
356412,28378,138892
356423,28015,139612
356434,27790,140103
356445,27790,140021
356456,27528,140161
356467,27387,139998
356479,27380,139973
356490,27246,139552
356501,27554,139355
356512,27337,138968
356523,27430,138388
356539,27480,137833
356545,27412,137144
356557,27626,136648
356568,27784,135870
356579,27901,135253
356590,27957,134020
356601,28076,134001
356613,28130,133424
356624,28076,133286
356640,28352,133107
356646,28245,133060
356657,28239,133227
356668,28082,133271
356679,28052,133701
356691,28260,133633
356702,28324,134237
356713,28246,134623
356724,28215,134756
356739,28510,134963
356746,28368,134731
356758,28157,134651
356769,28243,134935
356780,28234,134433
356791,28267,134526
356802,28357,134400
356813,28208,134168
356825,28496,133836
356840,28281,133695
356847,28464,133428
356858,28481,133328
356869,28668,132884
356880,28658,133376
356891,28679,132897
356903,28748,132684
356914,28937,132413
356925,28677,132167
356939,28792,131746
356947,28916,131900
356958,28847,132409
356970,28635,133418
356981,28592,136022
356992,28285,138286
357003,27890,139897
357014,27906,140954
357025,27090,141043
357040,27212,141310
357048,26929,141268
357059,26750,141473
357070,26549,141461
357081,26599,141259
357092,26463,141163
357104,26617,140752
357115,26540,140444
357126,26673,139673
357140,26369,139401
357148,26559,138702
357159,26666,137752
357171,26175,136756
357182,26782,136311
357193,27073,135600
357204,27090,135144
357215,27153,134543
357226,27168,134479
357240,27320,134337
357249,27186,134636
357260,27229,134735
357271,27137,134764
357282,27097,135305
357293,27059,135688
357304,27227,135953
357316,27505,136134
357327,27238,136424
357340,27128,136248
357349,27420,136243
357360,27263,136056
357371,27208,135757
357383,27333,135581
357394,27429,135285
357405,27377,134969
357416,27369,134749
357427,27322,134389
357439,27708,133967
357450,27439,133593
357461,27725,133413
357472,27647,132978
357483,27647,132683
357494,27692,132496
357505,27744,132146
357517,27802,132038
357528,27796,132438
357540,27792,133746
357550,27960,136391
357561,27258,139310
357572,26823,140974
357584,26646,141968
357595,26098,142561
357606,26027,142640
357617,25714,142772
357628,25508,142787
357640,25199,142829
357650,25644,142539
357662,25294,142382
357673,25171,142171
357684,25000,141864
357695,25162,141723
357706,24900,141194
357717,25229,140783
357729,25014,140153
357740,25453,139725
357751,25247,139057
357762,25373,138268
357773,25366,137697
357784,25504,137350
357795,25644,137137
357807,25722,137020
357818,25785,137029
357829,25470,136893
357840,26050,137339
357851,26058,137382
357862,25828,137730
357874,25762,138110
357885,25656,138237
357896,25894,138408
357907,25647,138367
357918,26027,138375
357929,25530,138190
357941,26114,138351
357952,25858,138000
357963,25777,138027
357974,25885,137558
357985,25891,137201
357996,26134,136923
358007,26108,136744
358019,26131,136361
358030,25781,136013
358041,26175,135553
358052,26298,135346
358063,26263,135018
358074,26217,134705
358086,26321,134413
358097,26421,134288
358108,26278,134557
358119,26379,135561
358130,25371,138209
358141,25729,140697
358153,25755,142325
358164,25262,142912
358175,24819,143215
358186,24868,143570
358197,24401,143725
358208,24194,143592
358220,24237,143817
358231,23663,143785
358242,23576,143849
358253,23545,143738
358264,23473,143642
358275,23429,143655
358287,23371,143373
358298,23572,143126
358309,23713,143161
358320,23171,142854
358331,23606,142758
358342,23313,142559
358353,23448,142316
358365,23360,142276
358376,23524,141924
358387,23534,142130
358398,23613,142207
358409,23408,142210
358420,23390,142205
358432,23617,142279
358443,23522,142373
358454,23631,142379
358465,23406,142384
358476,23497,142416
358487,23421,142486
358499,23437,142369
358510,23724,142381
358521,23412,142351
358532,23338,142338
358543,23303,142203
358554,23583,142232
358565,23664,141919
358577,23541,141927
358588,23693,141909
358599,23661,141846
358610,24373,141601
358621,23607,141721
358632,23736,141497
358644,23786,141495
358655,23631,141329
358666,23638,141358
358677,23774,141090
358688,23744,141101
358699,23677,141184
358710,23709,141727
358722,23834,142604
358733,23451,143243
358744,23300,143952
358755,22910,144261
358766,22694,144553
358777,22297,144569
358789,21879,144993
358800,21847,145051
358811,21799,145122
358822,21693,145219
358833,21609,144867
358844,22204,144802
358856,21421,144852
358867,21594,144622
358878,21468,144464
358889,21652,144348
358900,21580,143892
358911,21629,143731
358922,21894,143478
358934,21743,143159
358945,21890,142843
358956,21975,142640
358967,21929,142698
358978,22223,142623
358990,22090,142656
359001,22185,142892
359012,22190,143008
359023,22202,143250
359034,22157,143259
359045,22143,143699
359056,22099,143459
359068,22091,143564
359079,21961,143436
359090,22091,143573
359101,22158,143344
359112,22054,143290
359123,22149,143046
359140,21935,142995
359146,22122,142851
359157,22210,142371
359168,22253,142002
359179,22427,141647
359190,22356,141194
359202,22527,140952
359213,22626,140640
359224,22843,140392
359240,22898,140032
359246,22793,139824
359257,23028,139808
359269,22595,139583
359280,23112,139329
359291,23058,139091
359302,23225,139198
359313,23241,139297
359324,23143,139891
359340,22848,141818
359347,22842,143290
359358,22619,144359
359369,22445,144988
359380,22271,145157
359391,22019,145593
359402,21695,145785
359414,21644,145750
359425,21301,145961
359440,21395,145773
359447,21171,145984
359458,21495,145923
359469,22239,145480
359481,21322,145573
359492,21199,145394
359503,21110,145124
359514,21336,145035
359525,21781,144309
359540,21309,144423
359547,21643,144165
359559,21602,143938
359570,21717,143594
359581,21834,143656
359592,21805,143318
359603,22055,143347
359614,21753,143208
359626,22018,143384
359640,21919,143322
359648,22143,143478
359659,21970,143457
359670,21927,143477
359681,21964,143422
359693,22052,143495
359704,21814,143540
359715,21912,143372
359726,22018,143636
359740,22035,143499
359748,21888,143408
359759,21982,143477
359771,22152,143301
359782,22096,143256
359793,22201,143219
359804,22236,143181
359815,22134,143028
359826,22046,142625
359840,22372,141845
359860,22509,140937
359871,22497,140809
359882,22663,140244
359893,22560,139899
359905,23116,139605
359916,22871,139385
359927,22830,139799
359940,22754,140736
359949,22668,142088
359960,22662,143311
359972,22543,143790
359983,22378,144318
359994,21898,144400
360005,21969,144595
360016,22015,144557
360027,21844,144628
360040,21906,144628
360050,22069,144538
360061,21754,144481
360072,21854,144433
360083,21919,144255
360094,21907,144168
360105,21825,143590
360117,22104,143196
360128,22128,142814
360140,22306,142211
360150,22229,141720
360161,22335,141169
360172,22465,140681
360184,22661,140243
360195,22641,140085
360206,22596,139873
360217,22813,139808
360228,22663,139973
360239,22902,140054
360251,23031,140067
360262,22943,140280
360273,22927,140493
360284,22921,140496
360295,23055,140860
360306,23013,141034
360318,23186,141122
360329,23238,141266
360340,23191,141323
360351,23196,141348
360362,23429,141169
360373,23194,141165
360385,23047,141005
360396,23427,141020
360407,23469,141115
360418,23648,140965
360429,23553,140958
360440,23662,140872
360451,23594,140802
360463,23688,140586
360474,23878,140459
360485,23738,140235
360496,23991,140010
360507,23947,140110
360518,23733,140297
360530,23817,141264
360541,23679,142441
360552,23651,143054
360563,23380,143569
360574,23356,143807
360585,22957,143991
360597,23079,144091
360608,22734,144297
360619,22972,144059
360630,22793,144004
360641,22770,144135
360652,22562,144115
360663,22754,144011
360675,22661,143997
360686,22686,143753
360697,22623,143682
360708,22710,143467
360719,22789,143238
360730,22721,142658
360742,22805,142216
360753,22829,141784
360764,22418,141322
360775,23033,141007
360786,23238,140727
360797,23020,140581
360808,23306,140531
360820,23366,140662
360831,23249,140680
360842,23281,140769
360853,23246,140883
360864,23356,140718
360875,23527,141178
360887,23516,141139
360898,23304,141080
360909,23589,141035
360920,23387,141104
360931,23592,141049
360942,23601,140839
360954,23605,140877
360965,23669,140797
360976,23738,140581
360987,23586,140644
360998,23834,140823
361009,23678,140737
361021,24006,140630
361032,24042,140631
361043,23919,140488
361054,23925,140641
361065,23998,140843
361076,23801,141306
361088,23692,142055
361099,23747,142637
361110,23523,143180
361121,23439,143398
361132,23450,143692
361143,23171,143870
361154,23019,143857
361166,22877,143981
361177,22890,144035
361188,22938,143935
361199,22881,143827
361210,22905,143866
361221,22924,143793
361233,22908,143611
361244,22774,143248
361255,22919,143248
361266,22850,142999
361277,23020,142748
361288,23176,142299
361300,23247,141783
361311,23090,141530
361322,23245,141173
361333,23392,140952
361344,23375,140794
361355,23373,140802
361366,23372,140950
361378,23516,141075
361389,23594,141639
361400,23482,141495
361411,23524,141669
361422,23507,141968
361433,23744,141875
361444,23585,141838
361456,23523,141955
361467,23482,141788
361478,23574,141703
361489,23609,141795
361500,23528,141567
361511,23712,141457
361523,23713,141317
361534,23816,141135
361545,23781,140996
361556,23950,140778
361567,24062,140504
361578,23878,140648
361590,24205,140308
361601,24120,140060
361612,24266,140040
361623,24073,139891
361634,24331,140235
361645,24144,141179
361657,24091,141882
361668,24133,142430
361679,23824,143109
361690,23540,143316
361701,23412,143522
361712,23438,143616
361723,23204,143613
361740,23288,143722
361746,22992,143764
361757,22959,143703
361768,22839,143304
361779,23140,143578
361790,23019,143499
361802,23053,143248
361813,23124,143104
361824,23123,142743
361839,23000,142714
361846,23196,142349
361857,23315,142022
361869,23353,141674
361880,23302,141227
361891,23412,141033
361902,23353,140827
361913,23516,140937
361924,23646,140882
361940,23568,141056
361947,23818,141127
361958,23663,141294
361969,23647,141515
361980,23628,141499
361991,23692,141534
362003,23624,141670
362014,23737,141694
362025,23730,141383
362040,23667,141488
362047,23690,141366
362058,23786,141465
362069,23730,141173
362081,23718,140986
362092,23815,140758
362103,23768,140658
362114,23832,140165
362125,23793,140081
362140,23947,139553
362147,24250,139237
362159,24230,138801
362170,24267,138408
362181,24321,138126
362192,24449,137928
362203,24376,138562
362214,24366,139693
362226,24309,140850
362240,24080,141618
362248,24239,142158
362259,23868,142464
362270,23921,142795
362281,23865,142937
362292,23933,142971
362304,23632,142886
362315,23550,142928
362326,23587,142873
362339,23580,142856
362348,23436,142506
362359,23834,142761
362371,23549,142528
362382,23639,142293
362393,23565,141916
362404,23734,141787
362415,23574,141398
362426,23862,141220
362440,23939,139675
362449,23735,140027
362460,24079,139698
362471,24373,139507
362482,24416,139213
362493,24516,138589
362505,24181,138545
362516,24334,138183
362527,24412,138410
362540,24366,138354
362549,23804,138199
362560,24585,138085
362572,24364,137986
362583,24553,137851
362594,24754,137731
362605,24679,137448
362616,24686,137469
362627,25093,137297
362640,25272,136996
362650,25088,137188
362661,25046,137128
362672,25213,136793
362683,25169,136798
362694,25145,136218
362705,25437,135994
362717,25268,135516
362728,25805,135182
362740,25279,135772
362750,25307,135907
362761,25446,136967
362772,25107,138156
362784,25399,138389
362795,24620,138699
362806,25326,138744
362817,25184,138645
362828,25651,138336
362839,25426,138242
362851,25413,137843
362862,25167,138035
362873,25393,137110
362884,25522,137056
362895,25414,136737
362906,25628,136394
362917,25440,135971
362929,25742,136069
362940,25819,136692
362951,25891,137047
362962,25733,137233
362973,26162,137362
362984,25862,138170
362995,25861,137987
363007,25588,137772
363018,25840,138180
363029,25374,138550
363040,25638,138546
363051,25961,138296
363062,25918,138491
363074,25561,138071
363085,25448,138574
363096,25403,138191
363107,25616,137937
363118,25693,137650
363129,26136,138206
363141,26119,138093
363152,25675,138177
363163,26257,138321
363174,25912,138197
363185,26223,138109
363196,25892,138043
363207,26313,138531
363219,26238,138172
363230,26277,137856
363241,26311,137637
363252,26653,137276
363263,26274,137205
363275,26662,137355
363286,25654,137369
363297,26180,137655
363308,26113,138572
363319,26917,138932
363330,26391,139147
363342,26090,139692
363353,25719,139705
363364,26034,140232
363375,25805,139359
363386,25806,139497
363397,25151,139525
363408,25489,139339
363420,24966,139609
363431,24897,139361
363442,24772,138958
363453,25235,139261
363464,26319,138008
363475,27011,137302
363487,27966,138245
363498,28465,141990
363509,27779,146090
363520,27024,148165
363531,26210,148859
363542,26212,148818
363553,25415,149336
363565,25842,149526
363576,24350,150141
363587,23787,151581
363598,24114,152697
363609,23515,153135
363620,22892,154000
363632,21616,155836
363643,23231,156950
363654,30392,156736
363665,34224,156372
363676,34789,156623
363687,34748,156838
363698,34885,156715
363710,34927,156688
363721,35034,156805
363732,36247,156675
363743,39222,156735
363754,42836,156524
363765,47982,156547
363777,57028,156605
363788,66906,156482
363799,66073,156651
363810,60384,156988
363821,55334,157155
363832,52524,156937
363844,53407,157141
363855,56652,156956
363866,66535,156616
363877,85621,156569
363888,108855,156575
363899,134485,156271
363910,155632,156223
363922,156720,156227
363933,156618,156328
363944,153591,156383
363955,141576,156445
363966,134157,156480
363978,132262,156616
363989,133701,156480
364000,132566,156691
364011,126486,156792
364022,111451,156859
364033,86450,157006
364044,68349,157150
364056,55733,157431
364067,46588,157439
364078,38788,157803
364089,33086,157875
364100,30734,157993
364111,29631,157956
364123,29168,158069
364134,28623,158013
364145,28412,158141
364156,28040,158162
364167,27864,158187
364178,27268,158202
364189,26223,158335
364201,24946,158469
364212,24013,158395
364223,23373,158634
364234,23241,158618
364245,23017,158520
364256,23287,158489
364268,23627,158360
364279,23507,158458
364290,23640,158310
364301,23624,158231
364312,23568,158350
364323,23320,157940
364340,23158,158370
364346,22944,158388
364357,23240,158095
364368,22696,158330
364379,23208,158284
364390,23011,158216
364401,23005,158305
364413,22951,158116
364424,22669,158232
364440,22565,158238
364446,22633,158075
364457,22551,158100
364468,22559,157945
364480,22740,158232
364491,22822,158043
364502,22700,157992
364513,22873,158159
364524,23102,157982
364540,23178,158078
364547,23097,157956
364558,22949,157842
364569,22893,157919
364580,22948,157977
364591,23010,157952
364602,22943,157828
364613,23024,157810
364625,23313,157691
364639,23383,157829
364647,23581,157933
364658,23876,157714
364669,24219,157879
364680,24479,157929
364692,24948,157862
364703,25159,157885
364714,25397,157855
364725,25186,157730
364740,24799,157985
364747,24719,157716
364759,24552,157777
364770,24578,157858
364781,24544,157890
364792,24737,157771
364803,24722,158068
364814,24885,157923
364826,25101,157830
364840,25150,157797
364848,25233,158350
364859,25198,157859
364870,25353,157790
364881,25327,157768
364892,25268,157668
364903,25061,157841
364915,24765,157770
364926,24703,157789
364940,24916,157939
364948,24571,157897
364959,24454,157977
364970,24528,157883
364982,24388,157939
364993,24104,157753
365004,24259,157891
365015,23951,157834
365026,23791,157645
365040,23677,158028
365049,23573,157946
365060,23007,157984
365071,22364,158072
365082,22044,158002
365093,21680,158056
365104,21078,157823
365115,20880,157896
365127,21192,157876
365139,21221,157704
365149,21200,157823
365160,21517,157601
365171,21678,157604
365183,21685,157828
365194,21656,157247
365205,21995,157158
365216,22212,156814
365227,22646,156613
365240,22673,156444
365249,23080,155960
365261,23127,155715
365272,23205,155651
365283,23633,155502
365294,23723,155408
365305,23772,155177
365316,23463,155248
365328,23931,154953
365340,23984,154915
365350,24136,154838
365361,24215,154761
365372,24357,154855
365383,24487,154623
365395,24376,154535
365406,24621,154567
365417,24799,154621
365428,24492,154716
365440,24615,154476
365450,24522,154447
365461,24497,154652
365473,24304,154645
365484,24127,154416
365495,24426,154174
365506,24060,154408
365517,24067,154425
365528,24240,154374
365540,24060,154392
365551,24054,154116
365562,24067,154234
365573,23917,154080
365584,24214,153816
365595,24200,153795
365606,23979,153669
365618,24486,153683
365629,24507,153615
365640,24657,153377
365651,24766,153211
365662,24496,153203
365673,24870,153243
365685,24601,153127
365696,25176,152997
365707,25350,152917
365718,25229,152860
365729,25231,152945
365740,25515,153030
365752,25748,152782
365763,25489,152978
365774,25510,152795
365785,25721,152954
365796,26046,152916
365807,25968,152663
365818,26183,152923
365830,26114,153027
365841,26005,152950
365852,25927,153134
365863,26029,153229
365874,26111,153107
365885,26030,153510
365897,26003,153270
365908,26113,152992
365919,26191,153287
365930,25971,153217
365941,26092,153196
365952,26168,153479
365964,26072,153091
365975,25988,153523
365986,25669,153656
365997,25991,153882
366008,25873,154003
366019,25587,154203
366030,25113,154169
366042,24917,154241
366053,24949,154262
366064,24798,154411
366075,24624,154112
366086,24194,154146
366098,24209,153773
366109,24278,154283
366120,24235,154417
366131,24357,154343
366142,24086,154908
366153,23490,155581
366164,23551,155683
366176,23332,155870
366187,23542,155652
366198,23298,155431
366209,23317,155318
366220,23390,155435
366231,23472,155181
366242,23353,155340
366254,23675,155413
366265,23509,155420
366276,23977,155095
366287,23759,154900
366298,23864,154923
366309,24075,154939
366321,23978,154983
366332,23960,155003
366343,24036,154945
366354,23843,154739
366365,24285,154504
366376,24007,154133
366387,24148,154053
366399,24551,154086
366410,24560,153992
366421,24658,153929
366432,24707,153724
366443,24616,153521
366454,24610,153093
366466,24776,153061
366477,25130,152964
366488,24844,152686
366499,25127,152583
366510,25337,152566
366521,25177,152593
366532,25329,152532
366544,25139,152426
366555,25061,152196
366566,24947,151930
366577,25134,152108
366588,24742,152206
366600,24789,152065
366611,24660,151759
366622,24958,151910
366633,24862,151995
366644,24671,151793
366655,24410,151743
366667,24611,151780
366678,24976,151657
366689,25015,151554
366700,25029,151593
366711,24846,151414
366722,24694,151540
366733,25083,151087
366745,25348,150978
366756,25277,151050
366767,25438,150923
366778,25314,150834
366789,25519,150758
366800,25572,150567
366812,25609,150593
366823,25591,151176
366834,25609,150383
366845,25684,150226
366856,25564,150255
366867,25436,150234
366878,25572,149985
366890,25704,149828
366901,25699,149912
366912,25670,149360
366923,25620,149331
366934,25560,149241
366945,25516,148949
366956,25658,149068
366968,25663,148819
366979,25798,148514
366990,25926,148372
367001,25868,148072
367012,25840,147454
367023,25797,147436
367039,25654,147114
367046,25659,146391
367057,25543,146184
367068,25362,146432
367079,25096,146700
367090,25010,146839
367102,24701,147236
367113,24590,147232
367124,24544,147155
367140,24151,147354
367146,23933,147278
367157,23902,147271
367169,23817,147259
367180,23568,147121
367191,23794,147005
367202,23788,146812
367213,23550,146757
367224,23974,146605
367240,23946,146350
367247,23863,146171
367258,23812,145890
367269,24013,145548
367280,24022,145173
367291,23898,145022
367302,23984,144440
367314,24454,144398
367325,24273,144005
367340,24261,143926
367347,24523,143558
367358,24463,143560
367369,24664,143435
367381,24799,143459
367392,24687,143520
367403,24758,143519
367414,24610,143713
367425,24827,143496
367439,24786,143449
367447,24874,143841
367459,24920,143541
367470,25227,143671
367481,25068,143742
367492,25426,143537
367503,25637,143555
367514,25500,143404
367525,25363,143468
367540,25760,143396
367548,25363,143296
367559,25597,143132
367570,25706,142958
367581,25744,143015
367592,25830,142826
367604,25901,142789
367615,26269,142783
367626,26178,142879
367640,26160,143349
367648,25979,143701
367659,25960,143937
367671,25945,144185
367682,25789,144328
367693,25813,144560
367704,25838,144711
367715,25760,144786
367726,25597,144560
367740,25454,144668
367749,25424,144641
367760,25540,144461
367771,25538,144138
367782,25679,144457
367793,25473,144127
367804,25740,144118
367816,25650,143859
367827,25560,143889
367840,25715,143668
367849,25936,143440
367860,25807,143240
367872,25993,143191
367883,26092,142797
367894,26062,142707
367905,26150,142742
367916,26194,142379
367927,26404,142466
367939,26452,142427
367950,26362,142456
367961,26302,142552
367972,26425,142563
367983,26524,142589
367994,26401,142461
368005,26258,142425
368017,26525,142486
368028,26356,142433
368040,26648,142388
368050,26576,142292
368061,26524,142517
368072,26806,142303
368083,26771,141909
368095,26784,141880
368106,26792,141802
368117,26880,141658
368128,26767,141457
368139,26908,141196
368150,26979,141176
368161,27255,141029
368173,27060,141377
368184,26887,141631
368195,27125,142447
368206,27305,142945
368217,26756,143154
368228,26639,143403
368240,26611,143625
368251,26528,143770
368262,26549,143556
368273,26397,143524
368284,26447,143853
368295,26507,143945
368307,26654,143423
368318,26438,143668
368329,26298,143434
368340,26497,143349
368351,26447,143099
368362,26458,143181
368374,26552,143076
368385,26509,142651
368396,26855,142430
368407,26876,142100
368418,26957,142032
368429,27008,141753
368441,27088,141496
368452,27154,141242
368463,27217,140971
368474,26904,140943
368485,27020,140732
368496,27053,140831
368507,27387,140961
368519,27244,141004
368530,27340,141070
368541,27549,141188
368552,27611,141132
368563,27291,141043
368574,27446,140911
368585,27424,140848
368597,27440,140650
368608,27650,140676
368619,27682,140718
368630,27654,140435
368641,27611,140533
368652,27777,140221
368664,27707,139938
368675,27892,139565
368686,27890,139541
368697,27858,138967
368708,27874,138770
368719,28105,138334
368731,28163,137998
368742,28033,138012
368753,28004,138915
368764,27851,139974
368775,27641,141159
368786,27811,141874
368797,27588,142236
368809,27379,142604
368820,27429,142827
368831,27335,142789
368842,27334,142967
368853,27303,142800
368864,27322,142964
368876,26957,142645
368887,27289,142391
368898,27078,142527
368909,27308,142419
368920,27380,142318
368931,27558,141986
368943,27285,141626
368954,27462,141334
368965,27482,140913
368976,27657,140221
368987,27881,140028
368998,27709,139554
369009,27900,139060
369021,28155,138743
369032,27970,138389
369043,28221,138066
369054,28005,137909
369065,28424,137910
369076,28058,137622
369088,28319,137938
369099,28394,138104
369110,28400,138269
369121,28418,138100
369132,28522,138417
369143,28360,138519
369154,28552,138470
369166,28653,138383
369177,28496,138441
369188,28608,138383
369199,28510,138376
369210,28805,138537
369221,28835,138779
369233,29059,137980
369244,28990,138008
369255,28881,137879
369266,28833,137894
369277,29016,137752
369288,29269,137563
369299,29138,137589
369311,29377,137601
369322,29216,137882
369333,29265,138927
369344,29284,140286
369355,29375,141210
369366,28884,141825
369378,28768,141959
369389,28590,142231
369400,28696,142387
369411,28615,142375
369422,28308,142342
369433,28352,142386
369445,28275,142501
369456,28287,142414
369467,28411,142360
369478,28400,142147
369489,28436,142077
369500,28422,141855
369512,28644,141883
369523,28677,141306
369534,28517,141072
369545,28680,140819
369556,28713,140433
369567,28844,140065
369578,28934,139780
369590,29166,139557
369601,29288,139193
369612,29193,139140
369623,29126,139261
369634,29345,139200
369645,29523,139238
369656,29312,139235
369668,29357,139294
369679,29330,139401
369690,29412,139517
369701,29087,139275
369712,29581,139523
369723,29352,139437
369740,29288,139704
369746,29549,139182
369757,29471,139427
369768,29583,139285
369779,29554,139346
369790,29582,139218
369801,29697,139056
369813,29686,138893
369824,29862,138709
369840,29932,138536
369846,30149,138316
369857,29911,138183
369868,30027,137949
369880,29934,137928
369891,29962,138153
369902,30085,138538
369913,29739,139669
369924,29803,140709
369940,29664,141484
369947,29526,141833
369958,29362,142018
369969,29204,142305
369980,29084,142314
369991,28976,142410
370002,29003,142297
370014,28822,142363
370025,28895,142329
370039,28699,142268
370047,28875,142300
370058,28732,142103
370069,28805,141976
370080,28792,141822
370092,29009,141580
370103,29133,141345
370114,29095,140995
370125,29524,140695
370140,28873,140410
370147,29161,140044
370158,29212,139614
370170,29385,139398
370181,29420,139050
370192,29350,139207
370203,29376,139262
370214,29429,139216
370225,29714,139106
370239,29457,139275
370248,29462,139252
370259,29656,139377
370270,29274,139604
370281,29451,139601
370292,29701,139491
370304,29655,139477
370315,29498,139679
370326,29602,139572
370340,29580,139496
370348,29643,139499
370359,29825,139459
370370,30007,139232
370382,29937,139028
370393,29702,138870
370404,29740,138693
370415,29819,138617
370426,30138,138319
370440,30069,138164
370449,30133,137948
370460,30262,137838
370471,30155,137592
370482,30151,137554
370493,30102,137957
370504,30284,138951
370515,30060,140174
370527,29834,141031
370540,29601,141788
370549,29487,141923
370560,29311,142319
370571,29159,142575
370582,29241,142652
370594,28988,142597
370605,28900,141997
370616,28888,142602
370627,28865,142525
370640,28715,142439
370649,28535,142447
370661,28615,142393
370672,28648,142099
370683,28595,141925
370694,28704,141720
370705,28912,141369
370716,28884,141236
370728,29006,140851
370739,29098,140366
370750,29020,139991
370761,29147,139704
370772,29146,139462
370783,29277,139535
370794,29133,139395
370805,29350,139445
370817,29367,139589
370828,29440,139605
370840,29508,139793
370850,29455,139990
370861,29458,140019
370872,29337,140062
370884,29598,140243
370895,29544,140208
370906,29401,140400
370917,29576,140238
370928,29533,140322
370940,29532,140244
370951,29478,139956
370962,29603,140069
370973,29752,139984
370984,29603,139916
370995,29865,139959
371006,29675,139813
371018,29773,139676
371029,29968,139561
371040,29740,139501
371051,29839,139297
371062,30037,139296
371073,29941,139127
371084,30132,138723
371096,30131,139230
371107,30235,139483
371118,29931,140360
371129,29904,141335
371140,29650,142277
371151,29422,142375
371163,29109,142892
371174,28856,142946
371185,28722,143082
371196,28753,143317
371207,28516,143268
371218,28420,143229
371230,28378,143353
371241,28305,143212
371252,27931,143094
371263,28235,143127
371274,28203,142892
371285,28150,142876
371296,28168,142658
371308,28042,142539
371319,28268,142306
371330,28241,142124
371341,28268,141954
371352,28534,141840
371363,28334,141500
371374,28703,141464
371386,28502,141338
371397,28518,141254
371408,28470,141151
371419,28625,141158
371430,28597,141171
371441,28741,141460
371453,28670,141608
371464,28937,141484
371475,28865,141610
371486,28754,141671
371497,28522,141696
371508,28601,141822
371519,28480,141844
371531,28673,141828
371542,28528,141803
371553,28686,141783
371564,28871,141577
371575,28702,141651
371587,28732,141488
371598,28653,141508
371609,28914,141293
371620,28838,141283
371631,28829,141060
371642,28938,141001
371653,29119,140876
371665,28976,140893
371676,28981,140549
371687,28967,140498
371698,29082,140493
371709,29349,140632
371720,29053,141077
371732,29064,141831
371743,28771,142373
371754,28572,142785
371765,28467,142973
371776,27985,143384
371787,28024,143594
371798,27776,143545
371810,27728,143849
371821,27443,143698
371832,27360,143798
371843,27232,143742
371854,27141,143777
371865,27141,143495
371876,26984,143452
371888,27113,143366
371899,27024,143286
371910,27266,143226
371921,27169,143116
371932,27035,142921
371943,27321,142704
371955,27348,142740
371966,27454,142407
371977,27311,142300
371988,27420,142031
371999,27407,142098
372010,27589,141971
372022,27514,141957
372033,27561,141903
372044,27695,141867
372055,27667,142173
372066,27660,142172
372077,27565,142284
372089,27582,142334
372100,27745,142186
372111,27459,142331
372122,27586,142408
372133,27498,142386
372144,27560,142421
372156,27649,142413
372167,27622,142352
372178,27782,142118
372189,27629,142208
372200,27744,141886
372211,27800,142028
372222,27688,141903
372234,27850,141819
372245,27907,141905
372256,28054,141648
372267,27836,141469
372278,27893,141524
372289,27919,141595
372301,27850,142063
372312,27917,142591
372323,27766,143018
372334,27507,143445
372345,27283,143881
372356,27356,143864
372367,26924,143946
372379,26863,144089
372390,26954,144015
372401,26613,144150
372412,26413,144074
372423,26360,144002
372440,26328,143830
372445,26235,143828
372457,26427,143877
372468,26469,143872
372479,26253,143718
372490,26473,143604
372501,26544,143483
372512,26485,143361
372524,26480,143171
372540,26648,142907
372546,26780,142768
372557,26654,142543
372568,26857,142413
372579,26842,142307
372591,26859,142505
372602,26893,142308
372613,26987,142450
372624,26845,142264
372639,26941,142427
372646,27009,142466
372657,26947,142640
372669,27199,142730
372680,26962,142756
372691,26988,142643
372702,27050,142809
372713,27225,142592
372724,26959,142455
372740,27077,142586
372747,26980,142670
372758,27179,142430
372769,27203,142575
372780,27206,142547
372791,27396,142461
372802,27216,142352
372814,27518,142355
372825,27557,142370
372840,27303,142566
372847,27446,142690
372858,27124,143214
372869,27149,143708
372881,27002,143799
372892,26634,144132
372903,26686,144417
372914,26254,144566
372925,26100,144722
372940,25758,144901
372947,25717,145003
372959,25584,144970
372970,25422,145149
372981,25268,144976
372992,25153,144971
373003,25308,144774
373014,25317,144684
373026,25229,144659
373040,25022,144549
373048,25203,144374
373059,25249,144339
373070,25223,144211
373081,25255,143956
373093,25497,143924
373104,25242,143802
373115,25469,143757
373126,25401,143673
373140,25423,143673
373148,25301,143710
373160,25385,143746
373171,25592,143640
373182,25355,143802
373193,25519,143739
373204,24864,143833
373215,25309,143889
373226,25540,143949
373240,25361,143945
373249,25515,143907
373260,25486,143838
373271,25509,143818
373282,25361,143844
373293,25420,143853
373305,25614,143962
373316,25728,143796
373327,25531,143565
373339,25735,143668
373349,25781,143567
373360,25722,143589
373371,25668,143367
373383,25753,143394
373394,25633,143797
373405,25621,144081
373416,25497,144663
373427,25336,145062
373440,24974,145525
373449,24835,145765
373461,24781,145931
373472,24330,146208
373483,23960,146219
373494,23868,146429
373505,23760,146529
373516,23572,146490
373528,23568,146556
373540,23732,146360
373550,23354,146421
373561,23311,146268
373572,23418,146300
373583,23534,146121
373594,23433,146081
373606,23471,145799
373617,23351,145715
373628,23684,145489
373640,23509,145454
373650,23693,145425
373661,23586,145328
373673,23700,145219
373684,23891,145152
373695,23745,145145
373706,23778,145279
373717,23632,145156
373728,23682,145276
373740,23761,145264
373751,23772,145340
373762,23587,145334
373773,23652,145482
373784,23927,145424
373795,23667,145470
373807,23704,145407
373818,23636,145303
373829,23558,145294
373840,23672,145191
373851,23826,145163
373862,23820,145171
373873,23763,145059
373885,24103,145005
373896,23820,144892
373907,23982,144681
373918,23896,144623
373929,23847,144570
373940,24071,144753
373951,24093,144929
373963,23956,145843
373974,23811,145891
373985,23590,146361
373996,23503,146705
374007,23217,147096
374018,23061,147326
374030,22847,147516
374041,22623,147693
374052,22407,147797
374063,22322,147769
374074,22189,147765
374085,21894,147869
374096,21879,147866
374108,21849,147838
374119,21856,147654
374130,22118,147555
374141,21864,147571
374152,21778,147443
374163,21921,147257
374175,22046,147227
374186,22158,147023
374197,22128,146972
374208,22253,146745
374219,22185,146788
374230,22155,146636
374242,22047,146656
374253,22116,146572
374264,22102,146490
374275,22426,146528
374286,22378,146691
374297,22296,146580
374309,22334,146646
374320,22526,146626
374331,22414,146599
374342,22200,146671
374353,22396,146563
374364,22472,146604
374375,22501,146479
374387,22389,146378
374398,22351,146398
374409,22644,146218
374420,22620,146291
374431,22540,145930
374442,22558,146097
374453,22797,145851
374465,22692,145629
374476,22734,145532
374487,22701,145310
374498,22915,145121
374509,22812,145010
374520,23179,144816
374532,22930,144893
374543,23014,144506
374554,23078,145535
374565,22982,146286
374576,22694,146778
374587,22668,147317
374598,22439,147184
374610,22114,147974
374621,21955,148104
374632,21736,148339
374643,21697,148243
374654,21521,148293
374666,21345,148360
374677,21256,148283
374688,21258,148225
374699,21334,148197
374710,21211,148135
374721,21237,148025
374732,21430,147777
374744,21377,147753
374755,21250,147721
374766,21306,147436
374777,21470,147329
374788,21682,147162
374799,21541,146975
374811,21573,146758
374822,21584,146789
374833,21814,146643
374844,21799,147368
374855,21856,146698
374866,21856,146769
374877,21739,146684
374889,21774,146579
374900,21930,146870
374911,21849,146874
374922,21879,146761
374933,21868,146647
374944,21990,146725
374955,21879,146637
374967,22026,146653
374978,21978,146660
374989,22326,146310
375000,22152,146322
375011,22131,146256
375022,22432,146257
375034,22360,146108
375045,22250,145816
375056,22331,145822
375067,22372,145741
375078,22406,145694
375089,22517,145467
375101,22585,145248
375112,22545,145229
375123,22577,145038
375134,22656,144998
375145,22880,144759
375156,22736,144753
375168,22732,144944
375179,22942,145617
375190,22767,146107
375201,22560,146672
375212,22523,147286
375223,22375,147502
375240,21924,147885
375246,21844,147992
375257,21583,148287
375268,21490,148121
375279,21196,148336
375290,21021,148358
375301,21213,148343
375313,21068,148174
375324,21212,147967
375340,21085,148135
375346,21031,147994
375357,20967,147969
375368,21101,147833
375379,21319,147708
375391,21178,147501
375402,21020,147327
375413,21163,147345
375424,21336,147136
375440,21421,147055
375446,21441,147006
375458,21567,146882
375469,21531,147021
375480,21550,146935
375491,21522,146936
375502,21756,147081
375513,21564,147048
375524,21633,146976
375539,21684,147062
375547,21564,147033
375558,21586,147162
375569,21630,147019
375580,21656,147145
375591,21636,147040
375603,21784,146881
375614,21763,146783
375625,21865,146861
375640,21776,146831
375647,21719,146642
375658,22206,146372
375669,22094,146512
375681,21993,146363
375692,22070,146082
375703,22188,146058
375714,22070,145990
375725,22223,145936
375739,22264,145705
375747,22341,145715
375759,22314,145587
375770,22198,145552
375781,22393,145501
375792,22481,145386
375803,22667,144912
375814,22604,145247
375826,22636,145571
375840,22584,146194
375848,22435,146417
375859,22357,147064
375870,22081,147506
375881,21926,147632
375892,21497,147865
375904,21495,148007
375915,21344,148220
375926,21217,148338
375939,21188,148289
375948,21062,148284
375959,20948,148320
375971,20909,148361
375982,20915,148192
375993,21090,148247
376004,20908,148051
376015,20989,147929
376026,21110,147707
376040,21181,147688
376049,20826,147522
376060,21014,147245
376071,21165,147168
376082,21223,146993
376093,21436,146934
376105,21311,146764
376116,21331,146784
376127,21468,146839
376140,21500,146663
376149,21361,146917
376160,21629,146823
376171,21596,146992
376183,21604,146872
376194,21473,146919
376205,21489,146988
376216,21704,146731
376227,21573,147018
376240,21926,146681
376249,21696,146675
376261,21703,146660
376272,21816,146633
376283,21320,146731
376294,22000,146496
376305,21836,146321
376316,21892,146304
376328,22071,146238
376340,21913,146028
376350,22068,145848
376361,22335,145767
376372,22162,145767
376383,22113,145658
376394,22253,145319
376406,22462,145216
376417,22487,144989
376428,22425,144888
376440,22443,144910
376450,22556,144942
376461,22527,145372
376473,22431,145841
376484,22184,146457
376495,22198,146877
376506,22078,147253
376517,21684,147630
376528,21624,147750
376540,21548,147893
376551,21117,147974
376562,21226,147974
376573,20776,147998
376584,21057,148051
376595,20911,147957
376607,20968,147908
376618,21146,147883
376629,20880,147775
376640,20868,147602
376651,20816,147483
376662,21093,147328
376673,21355,147220
376685,21235,147074
376696,21159,146916
376707,21199,146739
376718,21204,146574
376729,21346,146550
376740,21487,146655
376751,21463,146664
376763,21561,146726
376774,21329,146625
376785,21431,146705
376796,21303,146783
376807,21413,146866
376818,21620,146876
376829,21422,146692
376841,21533,146808
376852,21302,146733
376863,21404,146726
376874,21568,146697
376885,21662,146573
376896,21594,146593
376908,21507,146404
376919,21659,146390
376930,21682,146234
376941,21683,146240
376952,21861,146321
376963,21784,146193
376975,21938,146122
376986,21945,145980
376997,22035,146083
377008,21972,145807
377019,22045,145774
377030,22111,145785
377042,22312,145909
377053,21890,146304
377064,21713,146467
377075,21852,146887
377086,21668,147234
377097,21335,147738
377109,21298,147651
377120,21190,148055
377131,20857,148304
377142,20556,148751
377153,20434,148382
377164,20188,148541
377175,20323,148542
377187,20054,148500
377198,20122,148232
377209,20156,148391
377220,20040,148396
377231,20061,148137
377242,20187,148356
377253,20241,148135
377265,20127,147889
377276,20086,147825
377287,20372,147685
377298,20281,147732
377309,20214,147420
377320,20407,147660
377331,20399,147451
377343,20340,147536
377354,20315,147405
377365,20425,147378
377376,20542,147512
377387,20468,147497
377398,20510,147517
377410,20399,147548
377421,21119,147569
377432,20504,147436
377443,20315,147552
377454,20498,147312
377465,20587,147329
377477,20441,147400
377488,20502,147183
377499,20555,147191
377510,20621,147077
377521,20517,147045
377532,20687,146999
377543,20611,146837
377555,20809,146789
377566,20723,146663
377577,20747,146313
377588,20652,146610
377599,20651,146750
377610,20762,147091
377622,20846,147326
377633,20300,147794
377644,20220,148048
377655,20042,148250
377666,19774,148584
377677,19733,148435
377688,19478,148714
377700,19263,148772
377711,19330,148817
377722,19105,148866
377733,19179,148738
377744,18887,148787
377755,19026,148690
377767,18998,148635
377778,19034,148593
377789,19084,148419
377800,19215,148323
377811,19207,148241
377822,18957,147898
377834,19318,148104
377845,19503,147945
377856,19466,147838
377867,19510,147714
377878,19589,147697
377889,19575,147545
377901,19601,147615
377912,19704,147707
377923,19516,147416
377934,19700,147576
377945,19652,147465
377956,19749,147704
377967,20042,147487
377979,19787,147367
377990,19732,147418
378001,19983,147347
378012,20145,147476
378023,19734,147251
378039,19839,147064
378045,20021,147160
378057,19901,147100
378068,20012,147111
378079,20009,146935
378090,20112,146724
378101,20749,146864
378112,20055,146612
378124,20115,146468
378140,20305,146488
378146,20456,146378
378157,20676,146365
378168,20423,146284
378179,20227,146689
378190,20305,147124
378202,20119,147365
378213,19675,147858
378224,19639,148084
378240,19408,148278
378246,19314,148399
378257,18905,148273
378269,18840,148682
378280,18828,148762
378291,18832,148566
378302,18915,148642
378313,18672,148542
378324,18638,148480
378340,18703,148444
378347,18640,148283
378358,18845,148382
378369,18901,148106
378380,18842,148097
378391,18880,147901
378403,18861,148275
378414,18892,147815
378425,19036,147623
378440,19125,147628
378447,19304,147455
378458,19296,147524
378469,19143,147533
378480,19265,147336
378492,19237,147362
378503,19466,147227
378514,19260,147289
378525,19500,147231
378540,19424,147258
378547,19398,147174
378559,19385,147173
378570,19453,147057
378581,19742,147016
378592,19617,146745
378603,19646,146973
378614,19786,146802
378625,19688,146671
378640,19769,146657
378648,19900,146456
378659,19964,146258
378670,20091,146298
378681,20018,146123
378692,20036,145802
378704,20194,145918
378715,20232,145896
378726,20261,145707
378740,20116,145537
378748,20573,145421
378759,20468,145338
378771,20467,145349
378782,20632,145239
378793,20772,145024
378804,20736,144826
378815,20859,144974
378826,20711,145260
378840,20749,145538
378849,20535,146032
378860,20477,146558
378871,20171,146899
378882,20003,147034
378893,19720,147554
378904,19470,147550
378916,19399,147807
378927,19364,147864
378940,18994,147804
378949,18970,147850
378960,19063,147765
378971,18873,147655
378982,18812,147493
378994,18962,147470
379005,18963,147472
379016,19097,147491
379027,19109,147409
379040,19028,147307
379049,19252,147096
379060,19128,146973
379072,19363,146966
379083,19379,146732
379094,19440,146656
379105,19471,146616
379116,19433,146497
379127,19604,146478
379140,19529,146314
379150,19687,146388
379161,19692,146321
379172,19666,146390
379183,19902,146286
379194,19901,146260
379206,19817,146297
379217,19696,146168
379228,19854,146056
379240,19788,146236
379250,19882,145957
379261,20070,145972
379273,19930,145937
379284,20067,145756
379295,20070,145784
379306,20213,145580
379317,20289,145802
379328,20218,145485
379340,20305,145282
379351,20528,145160
379362,20396,145150
379373,20417,145170
379384,20541,144996
379395,20721,144765
379406,20541,144711
379418,20757,144662
379429,20673,144550
379440,20869,144555
379451,20960,144444
379462,21142,144344
379473,20876,144256
379484,20979,144223
379496,21077,144123
379507,21200,144016
379518,21203,144198
379529,21463,144126
379540,21501,143935
379551,21363,144045
379563,21121,144502
379574,20973,144934
379585,20815,145326
379596,20665,145654
379607,20537,146075
379618,20259,146318
379629,19978,146497
379641,19010,146584
379652,19853,146478
379663,19681,146553
379674,19600,146615
379685,19572,146365
379696,19859,146259
379708,19535,146423
379719,19527,146112
379730,19586,146181
379741,19911,146130
379752,19697,145994
379763,19649,145894
379774,19799,145729
379786,19796,145499
379797,20454,145812
379808,20130,145455
379819,20038,145431
379830,19883,145087
379841,20215,144995
379852,20115,145190
379864,20229,145186
379875,20317,145123
379886,20198,144977
379897,20386,144366
379908,20299,145148
379919,20418,145130
379931,20309,144953
379942,20736,144933
379953,20595,144941
379964,20529,144854
379975,20574,144897
379986,20604,144862
379997,20606,144694
380009,20561,144759
380020,20596,144538
380031,20655,144123
380042,20793,144441
380053,20969,144145
380064,20894,144204
380076,21191,144170
380087,20907,144048
380098,21019,143896
380109,21231,144023
380120,21233,143945
380131,21261,144060
380143,21307,143825
380154,21254,143751
380165,21418,143641
380176,21396,143846
380187,21444,143536
380198,21607,143543
380210,21686,143582
380221,21826,143384
380232,21863,143145
380243,21683,143371
380254,21728,143530
380265,21685,144143
380276,21544,144310
380288,21423,144426
380299,21338,144937
380310,20885,145039
380321,21031,145421
380332,20797,145627
380343,20553,145669
380354,20465,145721
380366,20160,145689
380377,20676,145776
380388,20320,145700
380399,20132,145675
380410,20173,145543
380421,19995,145516
380432,20133,145468
380444,20083,145388
380455,20146,145229
380466,20239,145251
380477,20331,145126
380488,20356,144934
380499,20271,144877
380511,20196,144684
380522,20698,144881
380533,20584,144636
380544,20369,144504
380555,20629,144613
380567,20605,144542
380578,20515,144482
380589,20622,144551
380600,20803,144330
380611,20853,144730
380622,20673,144407
380633,20713,144402
380645,20891,144481
380656,20996,144239
380667,20831,144289
380678,20783,144423
380689,20902,144221
380700,20779,144208
380711,20987,144316
380723,21082,144047
380734,21092,144140
380745,21228,143868
380756,21260,143766
380767,21083,143733
380778,21375,143944
380789,21221,143759
380801,21619,143606
380812,21278,143652
380823,21612,143614
380834,21671,143451
380845,21472,143493
380856,21764,143367
380868,21583,143304
380879,21832,143226
380890,22029,143361
380901,22088,143216
380912,21879,143134
380923,22021,143130
380940,21870,143052
380946,21937,142785
380957,22151,142904
380968,22371,142847
380979,22184,142868
380990,22333,142965
381002,22370,143208
381013,22165,143585
381024,22036,143886
381040,21773,144208
381046,21698,144411
381057,21234,144824
381068,21064,144872
381080,20847,144994
381091,20517,145112
381102,20756,145132
381113,20441,145194
381124,20617,145190
381139,20525,145379
381146,20416,144945
381158,20401,145081
381169,20559,145053
381180,20536,145789
381191,20500,144744
381202,20552,144697
381213,20576,144575
381224,20549,144570
381240,20526,144309
381247,20702,144308
381258,20597,144161
381269,20661,144207
381280,20710,143888
381291,20923,144111
381303,20942,144014
381314,21029,144009
381325,20994,144034
381340,20861,144044
381347,20913,143920
381358,21150,144150
381370,21169,144124
381381,20883,143971
381392,21061,144107
381403,20972,144091
381414,21119,144047
381425,21039,143984
381440,21176,144027
381448,20994,144134
381459,21117,143984
381470,21223,143878
381481,21288,143938
381492,21423,143756
381503,21551,143699
381515,21397,143781
381526,21651,143475
381540,21426,143536
381548,21354,143429
381559,21584,143545
381570,21868,143499
381581,21921,143349
381593,21978,143322
381604,21938,143134
381615,21780,143066
381626,21956,143294
381639,22037,143041
381648,22003,143169
381659,22040,142951
381671,22054,142924
381682,22215,142822
381693,22180,143033
381704,22125,142976
381715,22326,143438
381726,22220,143696
381740,21938,143929
381749,21573,144162
381760,21217,144707
381771,21058,144562
381782,20979,144887
381793,20961,144995
381805,20734,144956
381816,20662,144978
381827,20674,145019
381839,20416,145171
381849,20474,145080
381860,20457,144940
381872,20432,144832
381883,20494,144805
381894,20351,144658
381905,20536,144869
381916,20440,144417
381927,20556,144628
381940,20398,144361
381949,20338,144348
381961,20737,144154
381972,20693,144137
381983,20630,144116
381994,20614,144118
382005,20871,144241
382016,20723,144024
382028,20841,144034
382040,20931,144075
382050,20862,144023
382061,20478,144307
382072,20978,144056
382083,20971,144113
382094,21130,143943
382106,20920,143986
382117,21086,144178
382128,20970,143903
382140,20716,143899
382150,20919,143928
382162,21047,143849
382173,21195,143905
382184,21182,143759
382195,21095,143697
382206,21240,143793
382217,21324,143719
382228,21447,143694
382240,21440,143546
382251,21501,143424
382262,21547,143477
382273,21418,143534
382284,21686,143462
382295,21610,143283
382307,21813,143199
382318,21663,143120
382329,21604,143112
382340,21160,143177
382351,21964,143165
382362,21884,143146
382373,21851,143432
382385,21597,143789
382396,21644,143854
382407,21414,144391
382418,21093,144574
382429,20846,144874
382440,20822,145119
382451,20638,145137
382463,20203,145192
382474,20261,145268
382485,20201,145184
382496,19607,145305
382507,20021,145207
382518,19913,145243
382530,19957,145157
382541,20019,145165
382552,19981,144993
382563,20182,144919
382574,20204,144750
382585,20086,144692
382596,20402,144744
382608,20313,144504
382619,20371,144297
382630,20373,144210
382641,20435,144245
382652,20446,144064
382664,20461,143947
382675,20709,144118
382686,20710,144102
382697,20529,143992
382708,20760,144107
382719,20687,144035
382730,20414,144096
382742,20752,144013
382753,20646,144080
382764,20810,144107
382775,20856,143909
382786,20738,143827
382797,20805,143809
382809,20849,143788
382820,20974,143699
382831,20926,143639
382842,20893,143623
382853,20936,143491
382864,20988,143583
382875,21088,143253
382887,21173,143307
382898,21173,143213
382909,21339,143311
382920,21436,143054
382931,21357,143076
382942,21429,142994
382953,21521,142953
382965,21840,143039
382976,21558,142800
382987,21728,142675
382998,21630,142665
383009,21725,142676
383020,21951,142914
383032,21891,142394
383043,21890,142403
383054,21950,142455
383065,21754,142827
383076,21899,143342
383087,21598,143548
383099,21370,144049
383110,21170,144196
383121,20919,144530
383132,20844,144835
383143,20686,144923
383154,20636,144972
383165,20514,144949
383177,20328,145107
383188,20112,144895
383199,20090,144988
383210,20380,144994
383221,20191,144896
383232,20103,144764
383243,20130,144708
383255,20051,144641
383266,20151,144456
383277,20304,144457
383288,20342,144326
383299,20313,144360
383310,20270,144187
383322,20485,144062
383333,20553,144037
383344,20613,143855
383355,20648,143822
383366,20908,143831
383377,20751,143875
383388,20545,143938
383400,20641,143875
383411,21014,143897
383422,20753,143793
383433,20885,143875
383444,20910,143840
383455,20720,144010
383467,20937,143836
383478,20993,143853
383489,20925,143699
383500,20954,143651
383511,21102,143760
383522,21178,143593
383534,21209,143568
383545,21127,143572
383556,21086,143374
383567,21247,143256
383578,21229,143265
383589,21330,143104
383600,21466,143183
383612,21488,142981
383623,21428,142870
383634,21568,142790
383645,21563,142505
383656,21706,142464
383667,21823,142538
383678,21731,142448
383690,22071,142223
383701,21936,142353
383712,22073,142295
383723,22100,142309
383739,22030,141970
383745,22154,142107
383757,22173,141955
383768,22194,141941
383779,22076,142065
383790,22002,142318
383801,22229,142907
383812,21971,143323
383823,21788,143560
383840,21038,143968
383846,21543,144029
383857,21329,144263
383868,21000,144526
383879,20826,144888
383890,20686,144780
383902,20694,144777
383913,20566,144666
383924,20532,144709
383939,20300,144848
383946,20480,144520
383957,20573,144522
383969,20418,144474
383980,20547,144460
383991,20620,144345
384002,20530,144247
384013,20679,144025
384024,20661,144163
384040,19935,144031
384047,20902,143979
384058,20923,143743
384069,20888,143716
384080,21302,143824
384091,21019,143703
384102,21027,143799
384113,21128,143696
384125,20953,143636
384140,21130,143711
384147,20997,143729
384158,21052,143789
384169,21313,143807
384180,21075,143892
384192,21082,143747
384203,21066,143609
384214,21223,143768
384225,21182,143651
384240,21160,143551
384247,21121,143687
384259,21526,143777
384270,21215,143470
384281,21207,143446
384292,21512,143325
384303,21418,143167
384314,21350,143294
384326,21512,143041
384340,21597,143113
384348,21558,142997
384359,22580,142790
384370,21726,142824
384381,21652,142785
384392,21706,142624
384404,21908,142601
384415,22042,142486
384426,22172,142536
384439,21969,142311
384448,21979,142327
384459,22151,142369
384470,22257,142143
384482,22226,142331
384493,22127,142655
384504,21909,143127
384515,22107,143377
384526,21802,143710
384540,21566,143868
384548,21471,144344
384560,21417,144444
384571,20993,144594
384582,20859,144783
384593,20557,144894
384604,20372,144819
384615,20514,145101
384627,20500,144956
384640,20436,144851
384649,20409,144993
384660,20368,144712
384671,20325,144695
384682,20492,144529
384694,20594,144421
384705,20292,144231
384716,20456,144323
384727,20622,144038
384740,20772,143951
384749,20652,143876
384761,20925,143859
384772,20849,143869
384783,20776,143779
384794,20919,143619
384805,20829,143788
384816,21080,143771
384827,20949,143747
384840,21033,143699
384850,20882,143751
384861,21041,143808
384872,21111,143813
384883,20967,143790
384894,21183,143720
384905,21030,143846
384917,21034,143614
384928,21179,143761
384940,21344,143710
384950,21232,143590
384961,21164,143497
384972,21283,143514
384983,21377,143359
384995,21411,143185
385006,21387,143131
385017,21388,143206
385028,21403,142961
385040,21907,142772
385051,21630,142942
385062,21716,142845
385073,21642,142666
385084,21824,142715
385095,21976,142534
385106,21718,142562
385117,21836,142350
385129,21997,142443
385140,22162,142391
385151,22181,142178
385162,22108,142096
385173,22224,142097
385184,22357,141880
385196,22333,141930
385207,22464,142062
385218,22072,141953
385229,22288,142736
385240,22159,143275
385251,22001,143700
385262,21687,143936
385273,21533,144172
385285,21309,144538
385296,20958,144796
385307,20874,144928
385318,20797,145128
385329,20608,145155
385340,20409,145188
385352,20358,145151
385363,20240,145157
385374,20380,144963
385385,20226,144883
385396,20301,144847
385407,20448,144697
385419,20439,144660
385430,20562,144641
385441,20440,144547
385452,20569,144370
385463,20869,144102
385474,20310,144242
385486,20594,144173
385497,20675,144050
385508,20898,144178
385519,20344,143740
385530,20765,144020
385541,20883,143981
385553,20859,143953
385564,20791,143745
385575,20942,144060
385586,20915,143973
385597,20937,143821
385608,20901,143924
385619,20836,143933
385631,20974,144044
385642,21010,143962
385653,20874,143876
385664,21126,143794
385675,20971,143797
385686,21133,143780
385697,21218,143760
385709,21064,143753
385720,21090,143573
385731,21248,143533
385742,21205,143579
385753,21399,143407
385764,21323,143304
385775,21272,143324
385787,21301,143349
385798,21443,143169
385809,21867,143055
385820,21695,143058
385831,21623,142879
385842,21710,142933
385854,21870,142591
385865,21781,142767
385876,21866,142794
385887,21897,142684
385898,22062,142644
385909,21996,142488
385921,22061,142670
385932,22084,142877
385943,21786,143399
385954,21705,143736
385965,21704,143975
385976,21314,144351
385988,21166,144612
385999,20671,144793
386010,20780,145071
386021,20799,145160
386032,20282,145344
386043,20220,145674
386054,20302,145600
386066,20212,145494
386077,20148,145448
386088,20122,145366
386099,20002,145373
386110,20120,145254
386121,20171,145092
386133,20098,144988
386144,20158,145043
386155,20282,144790
386166,20381,144566
386177,20150,144419
386188,20404,144296
386199,20552,144391
386210,20422,144212
386222,20593,144230
386233,20660,144275
386244,20866,144158
386255,20608,144109
386266,20528,144200
386277,20669,144101
386289,20749,144496
386300,20708,144271
386311,20619,144257
386322,20686,144245
386333,20690,144291
386344,20694,144135
386356,20764,144150
386367,20771,144165
386378,20942,143949
386389,20887,144074
386400,20961,143996
386411,20913,143831
386423,20992,143862
386434,20855,144004
386445,21103,143530
386456,20952,143758
386467,21257,143629
386478,21211,143539
386489,21216,143566
386501,21300,143423
386512,21274,143316
386523,21310,143123
386534,21434,142976
386545,21453,142847
386556,21416,143143
386567,21646,143061
386579,21313,143659
386590,21431,143909
386601,21229,144139
386612,21053,144490
386623,20937,144875
386640,20610,145059
386646,20426,145352
386657,20198,145568
386668,20028,145759
386679,19881,145918
386690,19811,145868
386701,19884,145719
386712,19720,145804
386724,20002,145610
386740,19927,145547
386746,19996,145521
386757,19981,145372
386768,19836,145316
386779,19951,145092
386791,20090,145008
386802,20108,144788
386813,20302,144704
386824,20166,144587
386840,20172,144405
386846,20213,144207
386858,20474,144304
386869,20278,144255
386880,20417,144160
386891,20550,144252
386902,20415,144199
386913,20638,144270
386925,20728,144167
386940,20649,144272
386947,20554,144201
386958,20654,144262
386969,20606,144198
386980,20711,144287
386991,20779,144282
387002,20702,144260
387014,20904,143926
387025,20598,144075
387040,20792,143998
387047,20719,144025
387058,20787,144069
387069,20808,143886
387081,20975,143842
387092,20863,143758
387103,21102,143864
387114,21075,143703
387125,21087,143769
387140,21217,143569
387148,20954,143661
387159,21210,143738
387170,21270,143588
387181,21078,143552
387192,21396,143396
387203,21093,143618
387214,21335,143948
387226,21133,144001
387240,21013,144499
387248,20802,144890
387259,20606,145554
387270,20184,145923
387281,20048,146196
387293,19802,146661
387304,19676,146694
387315,19672,147024
387326,19472,147071
387340,19316,147121
387348,19079,147096
387359,19049,147199
387371,19100,147213
387382,19261,147338
387393,19209,147230
387404,19120,147300
387415,19566,147301
387426,19907,147392
387440,20153,147675
387449,20544,147362
387460,21616,147472
387471,22608,147962
387482,22899,150784
387493,21840,154991
387504,20518,157607
387516,23939,158551
387527,46750,157921
387540,99173,157736
387549,157819,157438
387560,155286,153652
387571,152237,119650
387583,151591,119614
387594,144641,136867
387605,105895,139789
387616,81706,135971
387627,66037,132178
387640,53894,131182
387649,43077,124102
387661,32954,98212
387672,24673,75209
387683,18909,58268
387694,15145,47113
387705,12517,39662
387716,10523,33817
387728,8895,28625
387740,7549,23942
387750,6626,20440
387761,6074,18326
387772,5796,17416
387783,5608,16850
387794,5500,16668
387806,5618,17555
387817,5690,18132
387828,5755,18673
387840,6243,20695
387850,6992,23129
387861,7723,24973
387872,7255,23156
387884,5557,17937
387895,4424,14267
387906,4035,12771
387917,3928,12312
387928,3934,12322
387939,3964,12481
387951,4008,12692
387962,4010,12696
387973,3998,12513
387984,3954,12365
387995,3946,12303
388006,3956,12359
388017,4003,12485
388029,4018,12615
388040,3907,12329
388051,3767,11786
388062,3670,11601
388073,3798,12209
388084,4362,14332
388096,5175,17578
388107,6190,21600
388118,7645,26903
388129,9848,34345
388140,13467,45075
388151,18497,57787
388163,24007,68645
388174,29705,77007
388185,35048,81582
388196,34532,79085
388207,33682,78536
388218,32445,77080
388229,33343,78569
388241,29346,71111
388252,27019,67788
388263,33583,80205
388274,27612,70344
388285,30056,75051
388296,35469,86569
388308,41912,99695
388319,44676,105148
388330,42810,101572
388341,39105,94606
388352,34742,86272
388363,29609,75462
388375,26125,67443
388386,23385,60670
388397,20700,54140
388408,18351,48342
388419,16241,43112
388430,14477,38606
388442,13124,34886
388453,11999,31809
388464,11104,29317
388475,10331,27159
388486,9503,24982
388497,8513,22471
388508,7383,19637
388520,6296,16870
388531,5243,14307
388542,4397,12091
388553,3714,10324
388564,3200,8929
388575,2780,7818
388587,2482,6981
388598,2263,6326
388609,2102,5830
388620,1957,5409
388631,1829,5064
388642,1701,4771
388654,1620,4493
388665,1522,4232
388676,1424,3998
388687,1325,3788
388698,1264,3576
388709,1203,3430
388720,1147,3288
388732,1107,3167
388743,1063,3079
388754,1044,2995
388765,1023,2917
388776,1001,2877
388787,994,2822
388799,972,2797
388810,956,2751
388821,945,2721
388832,931,2680
388843,912,2640
388854,914,2621
388865,908,2583
388877,900,2565
388888,873,2549
388899,881,2516
388910,886,2488
388921,887,2502
388932,878,2480
388943,863,2478
388955,871,2452
388966,848,2452
388977,868,2442
388988,845,2436
388999,868,2410
389010,852,2388
389022,828,2361
389033,815,2366
389044,795,2362
389055,808,2321
389066,795,2314
389077,809,2320
389089,809,2291
389100,802,2282
389111,795,2267
389122,787,2266
389133,782,2262
389144,782,2265
389156,786,2251
389167,780,2248
389178,787,2256
389189,788,2237
389200,782,2249
389211,766,2232
389222,786,2245
389234,781,2241
389245,795,2238
389256,768,2235
389267,788,2225
389278,769,2234
389289,773,2227
389301,778,2217
389312,774,2226
389323,776,2208
389334,773,2214
389345,773,2202
389356,784,2215
389367,753,2199
389379,775,2205
389390,777,2211
389401,773,2217
389412,780,2226
389423,776,2216
389440,787,2238
389446,805,2242
389457,803,2260
389468,800,2243
389479,801,2259
389490,786,2263
389501,796,2272
389513,818,2253
389524,799,2251
389540,796,2244
389546,813,2274
389557,794,2268
389568,810,2273
389579,790,2271
389591,803,2244
389602,801,2252
389613,799,2262
389624,799,2243
389640,797,2243
389646,796,2240
389658,778,2212
389669,779,2211
389680,774,2205
389691,770,2189
389702,753,2205
389713,768,2197
389724,772,2193
389740,789,2183
389747,779,2179
389758,768,2181
389769,771,2170
389780,771,2176
389791,749,2152
389803,763,2149
389814,769,2151
389825,758,2142
389840,758,2147
389847,755,2131
389858,740,2119
389870,760,2138
389881,762,2116
389892,750,2134
389903,748,2118
389914,742,2135
389925,759,2123
389940,745,2110
