timestamp,slotA,slotB
59327,91234,90800
59332,91475,91356
59338,91410,91574
59343,91393,91421
59349,91683,91518
59355,91570,91519
59360,91810,92029
59366,91906,91816
59371,92191,92045
59377,92034,92275
59382,92234,91998
59388,92437,91746
59394,92466,91954
59399,92194,92464
59407,92858,92315
59410,92456,92475
59416,92692,92595
59421,92762,92354
59427,93033,92689
59433,92964,92433
59438,92793,92493
59444,92649,92616
59449,92937,92477
59455,92720,92229
59461,92824,92267
59466,92449,92376
59472,92755,92456
59477,92423,92473
59483,92099,91872
59489,91601,91456
59494,91355,91776
59500,91320,91675
59507,90981,91411
59511,90789,91071
59516,90574,90492
59522,90520,90442
59528,90702,90256
59533,90056,89875
59539,90110,89704
59544,89818,89749
59550,89931,89659
59556,89474,89420
59561,89573,89250
59567,89170,89321
59572,89393,89187
59578,89345,89276
59583,89240,89131
59589,89025,89285
59595,89049,89153
59600,89238,89284
59606,89181,88997
59611,89131,89539
59617,89485,89502
59623,89221,89258
59628,89000,89365
59634,89179,89316
59639,89380,89409
59645,89525,89115
59650,89586,89059
59656,89381,89148
59662,89806,89079
59667,90135,89147
59673,89657,89297
59678,89625,89285
59684,89675,89279
59690,89739,89610
59695,89558,89571
59701,89544,89754
59707,89940,89188
59712,89535,89681
59717,89768,89613
59723,89628,90196
59729,89772,89686
59734,89970,90044
59740,89922,89977
59745,89945,89945
59751,89968,89890
59756,89964,89714
59762,90155,89683
59768,90128,90149
59773,90052,89839
59779,89785,89933
59784,90380,89381
59790,89985,90184
59796,90381,89573
59801,90287,89996
59807,90090,89767
59812,89813,90080
59818,89950,89913
59824,90003,89872
59829,90126,90035
59835,90058,90475
59840,90007,89941
59846,90057,90101
59851,90096,89929
59857,90041,90506
59863,90125,90193
59868,89824,90419
59874,90306,90169
59879,90196,90015
59885,90564,89865
59891,90459,89788
59896,90555,89952
59907,90460,89945
59907,90340,90114
59913,90534,90549
59918,90409,90588
59924,90672,90128
59930,90545,90318
59935,90481,90439
59941,90355,90553
59946,90574,90381
59952,90758,90830
59957,90728,90576
59963,90811,90533
59969,90925,90928
59974,90953,91037
59980,90974,91203
59985,91210,90763
59991,91220,91315
59997,91222,91303
60006,91530,91131
60008,91529,91056
60013,91481,91053
60019,91662,91113
60025,91790,90793
60030,91749,91780
60036,91818,91353
60041,91584,91761
60047,91210,91570
60052,91426,91996
60058,91899,91807
60064,91772,91805
60069,91832,91922
60075,92039,92275
60080,92147,92021
60086,92254,91921
60092,92457,91746
60097,92629,92549
60107,92439,91976
60108,92313,92085
60114,92647,92226
60119,92575,92349
60125,92537,92361
60131,92475,92591
60136,92615,92451
60142,92792,92471
60147,92705,92687
60153,92624,92818
60158,92689,92679
60164,93212,93321
60170,93162,93030
60175,92787,93218
60181,93074,93158
60186,93127,93216
60192,93018,93183
60198,93441,92832
60207,93283,92887
60209,93163,93119
60214,92986,92669
60220,92884,92973
60226,92745,92620
60231,92729,92459
60237,92664,92266
60242,92141,91804
60248,92127,91641
60253,91399,91347
60259,91481,91738
60265,91459,91280
60270,90603,90652
60276,90525,90358
60281,90171,90300
60287,90148,90439
60293,89507,89819
60298,89079,89414
60307,89162,89141
60309,89172,88977
60315,88488,89260
60320,88903,88684
60326,88670,88330
60332,88514,88471
60337,88240,88294
60343,88661,88116
60348,88383,88373
60354,88586,88095
60359,88083,88145
60365,87933,88007
60371,87920,88353
60376,88168,87906
60382,88047,87964
60387,88435,87693
60393,87917,87993
60399,88185,88297
60407,87822,87841
60410,88109,87847
60415,88020,87799
60421,88180,87877
60426,87986,88321
60432,88352,87978
60438,88056,88073
60443,88743,87837
60449,88264,88215
60454,88883,88206
60460,88299,88306
60466,88446,88193
60471,88279,88554
60477,88350,87831
60482,88248,88368
60488,88417,88089
60493,88552,88105
60499,88694,88290
60506,87972,88094
60510,88163,88254
60516,88338,88226
60521,88452,88070
60527,88208,88106
60532,88349,88458
60538,88247,88314
60544,88469,88212
60549,88200,88229
60555,88354,88242
60560,88448,88232
60566,88147,88212
60572,88308,88155
60577,88036,87977
60583,88520,88138
60588,88349,88381
60594,88302,87906
60599,88243,88137
60607,88389,87857
60611,88050,88005
60616,88105,88244
60622,88268,88076
60627,88351,88225
60633,88382,88003
60639,88349,88261
60644,88401,88243
60650,88380,88413
60655,88562,88278
60661,88637,88390
60667,88627,88403
60672,88839,88637
60678,88975,88710
60683,88919,88512
60689,88964,88380
60694,89042,88730
60700,89188,89072
60707,89269,88818
60711,89438,89014
60717,89294,89100
60722,89150,88867
60728,89466,89089
60733,89547,89177
60739,89503,89668
60745,89761,89310
60750,89605,89757
60756,90226,89727
60761,90213,89513
60767,89797,89639
60773,90072,89885
60778,89844,90376
60784,90375,90444
60789,90447,90250
60795,90119,90137
60800,90529,90277
60807,90859,90302
60812,90483,90426
60817,90773,90552
60823,90611,90704
60828,90945,90819
60834,90754,90643
60840,91117,91075
60845,90930,90777
60851,90827,91083
60856,91179,91327
60862,91386,90858
60868,91064,91318
60873,91126,91210
60879,91097,91370
60884,91563,91603
60890,91077,91269
60895,91249,90894
60901,90821,91225
60907,90843,91025
60912,90671,90564
60918,90750,90258
60923,90352,90478
60929,90106,90206
60934,90128,89823
60940,89765,89682
60946,89493,89273
60951,89262,88863
60957,88939,88712
60962,88874,88782
60968,88635,88507
60974,88647,88388
60979,88323,88278
60985,88014,87771
60990,88000,88087
60996,88024,88005
61007,87858,87762
61007,87891,87879
61013,87765,88099
61018,87386,87693
61024,87885,87901
61029,87885,87745
61035,87997,87671
61041,87934,87815
61046,87979,87701
61052,87783,87555
61057,87845,87639
61063,88081,87855
61068,88126,87879
61074,88154,87882
61080,87929,87833
61085,87834,87624
61091,87890,87843
61096,87758,87909
61107,87937,88107
61108,87846,88083
61113,88302,88007
61119,88085,88041
61124,87639,87830
61130,88179,88002
61135,87993,88187
61141,87996,88337
61147,88276,87951
61152,88100,88162
61158,88233,88234
61163,88242,88208
61169,88580,88162
61175,88087,88342
61180,88598,88184
61186,88563,88131
61191,88537,88156
61197,87995,87717
61206,88696,87833
61208,88363,88590
61214,88239,88068
61219,87875,88461
61225,88110,87927
61230,88303,88180
61236,88317,88251
61241,88200,88699
61247,88125,88024
61253,88345,88561
61258,88419,88652
61264,88284,88283
61269,88697,88250
61275,88528,88323
61281,88398,88373
61286,88584,88437
61292,88799,88408
61297,88637,88789
61307,88655,88536
61309,88657,88590
61314,88639,88745
61320,88606,88727
61325,89051,88571
61331,88817,88627
61336,88716,89008
61342,89051,88860
61348,89181,89006
61353,89040,89071
61359,89120,88875
61364,89220,89378
61370,89310,89047
61376,89500,89326
61381,89322,89241
61387,89477,89334
61392,89349,89062
61398,89735,89192
61407,89506,89609
61409,89712,89370
61414,89627,89611
61420,89934,89687
61426,89736,89909
61431,89952,89511
61437,89869,90364
61443,89914,89972
61448,89910,90109
61454,90159,90310
61459,89918,89879
61465,90155,90131
61470,90544,90549
61476,90359,90381
61481,90505,90319
61487,90633,90190
61493,90650,90557
61498,90717,90621
61506,90693,90442
61509,90555,90362
61515,90713,90363
61521,90839,90709
61526,90587,90768
61532,91042,90878
61538,90983,90778
61543,90974,90432
61549,90686,90569
61554,90551,90477
61560,90459,90222
61565,90415,90106
61571,90024,89826
61576,90180,89548
61582,89802,89507
61588,89331,89044
61593,89062,88925
61599,88926,88486
61607,88800,88216
61610,88481,88449
61615,88213,88188
61621,88103,88032
61627,87908,87499
61632,87530,87504
61638,87568,87718
61644,87433,87260
61649,86928,87503
61655,87461,87489
61660,87726,87271
61666,87178,86930
61671,87010,87178
61677,87067,86984
61683,87096,87146
61688,87005,87225
61694,86779,86987
61699,87156,86776
61706,87366,87216
61710,87178,87270
61716,87245,86927
61722,86906,87036
61727,87270,87159
61733,87261,86727
61738,87222,86862
61744,87195,86908
61750,87079,86640
61755,87212,86650
61761,87135,86956
61766,87189,86858
61772,87282,86839
61777,87008,86974
61783,87052,87142
61789,87264,86670
61794,87105,86881
61800,87205,87248
61807,87073,87418
61811,87139,87093
61817,87118,87437
61822,87091,87209
61828,86966,87358
61833,87306,87181
61839,87426,87290
61844,87488,87208
61850,87260,87276
61856,87267,87553
61861,87492,87299
61867,87688,87021
61872,87814,87406
61878,87551,87219
61884,87668,87020
61889,87489,86784
61895,87382,87255
61900,87753,87514
61907,87495,87503
61911,87593,87639
61917,87900,87514
61923,87566,87634
61928,87763,87614
61934,87609,87375
61939,87506,87748
61945,87919,88189
61951,88089,87793
61956,87869,88205
61962,88074,88111
61967,87716,88066
61973,88211,87987
61978,88416,88247
61984,88586,88129
61990,88492,88276
61995,88672,88197
62001,88190,88402
62007,88720,88113
62012,88607,88678
62018,89042,88379
62023,88736,88549
62029,89094,88607
62034,88771,88777
62040,89150,88936
62045,88828,89164
62051,89281,89051
62057,89476,88848
62062,89180,89110
62068,88961,89576
62073,89452,89171
62079,89147,89363
62085,89508,89282
62090,89709,89771
62096,89663,89538
62107,89669,89654
62107,89868,90221
62113,90122,89914
62118,90036,89700
62124,89774,89588
62129,89922,89927
62135,90630,89939
62140,89956,90273
62146,90266,89869
62151,90191,89856
62157,89988,90326
62163,90315,90498
62168,90439,90604
62174,90599,90379
62179,90400,90806
62185,90252,90729
62191,90672,90868
62196,90652,90619
62207,90761,90619
62207,90454,91004
62213,90575,90560
62219,90463,90015
62224,90401,90121
62230,90191,90085
62235,90068,89874
62241,89794,89565
62246,89940,88972
62252,89419,88757
62258,89413,88798
62263,88603,88518
62269,88466,88498
62274,88499,87973
62280,88470,88065
62286,87826,88089
62291,87900,87923
62297,87491,87428
62307,87805,87379
62308,87586,87043
62313,87545,87612
62319,87618,87488
62325,87666,86994
62330,87417,87369
62336,87349,87369
62341,87212,87574
62347,87315,87230
62352,87337,87147
62358,87072,86933
62364,87233,86933
62369,87298,87115
62375,87523,87235
62380,87248,87393
62386,87167,87218
62392,87384,87303
62397,87423,87472
62407,87506,87585
62408,87671,87672
62414,87336,87085
62420,87223,87193
62425,87542,87466
62431,87390,87122
62436,87629,87217
62442,87629,87505
62447,87623,87384
62453,87697,87278
62458,88022,87200
62464,87648,87444
62470,87748,87643
62475,87782,87614
62481,87608,87489
62487,87729,87979
62492,87987,87557
62498,88028,88126
62507,87718,87807
62509,87812,87618
62514,87930,88079
62520,87796,88127
62526,88227,88006
62531,88081,87943
62537,87979,87749
62542,88257,87851
62548,88015,87880
62553,88026,87910
62559,88032,87899
62565,88298,88219
62570,88135,87828
62576,88196,87839
62581,88067,87757
62587,88011,88186
62593,88233,87871
62598,88142,88334
62607,88165,87735
62609,88036,88135
62615,88531,88413
62620,88179,88311
62626,88323,88315
62632,88657,88325
62637,88555,88798
62643,88408,88302
62648,88461,88769
62654,88689,88607
62660,88996,88653
62665,89154,88563
62671,88804,88952
62676,88651,88713
62682,88957,88845
62687,88890,88468
62693,89150,88838
62699,89138,89011
62707,89472,88423
62710,89386,89307
62715,89358,88813
62721,89463,89015
62726,89191,89263
62732,89551,89206
62738,89356,89276
62743,89574,89209
62749,89377,89306
62755,89521,89871
62760,89434,89868
62766,89788,89885
62771,89576,90018
62777,89851,89868
62782,89663,90025
62788,90169,89924
62793,89843,89984
62799,90136,89951
62807,90145,89927
62810,90115,90174
62816,90147,90280
62821,90681,89986
62827,90334,90086
62833,90697,90248
62838,90541,90299
62844,90705,90219
62849,90668,90390
62855,90747,90305
62861,90795,90105
62866,90827,90657
62872,90800,90704
62877,90715,90867
62883,90723,90791
62888,90759,90838
62894,91006,90849
62900,90724,91158
62907,90719,91055
62911,90761,90779
62916,90998,90564
62922,90682,90485
62927,90320,90596
62933,90345,90363
62939,89970,89936
62944,89990,89993
62950,89923,89811
62956,89334,89446
62961,89106,89210
62967,88765,88891
62972,88490,88570
62978,88608,88228
62983,87855,88069
62989,87960,87354
62994,87553,87445
63000,87525,87474
63007,87299,86851
63011,87215,87064
63017,87284,86822
63022,87105,86738
63028,86779,86817
63034,86749,86445
63039,86377,86265
63045,87020,86467
63050,86545,86627
63056,86684,86325
63062,86103,86515
63067,86353,86394
63073,86226,86485
63078,86592,86555
63084,86093,86458
63089,86499,86480
63095,86210,86332
63101,86677,86688
63107,86586,86087
63112,86754,86171
63117,86114,86271
63123,86783,86378
63128,86732,86325
63134,86775,86215
63140,86546,86241
63145,86660,86285
63151,86712,86430
63156,87024,86384
63162,86547,86698
63168,86773,86543
63173,86508,86525
63179,86450,86723
63184,86298,86197
63190,86755,86509
63195,86787,86448
63201,86610,86680
63207,86724,86527
63212,86604,86551
63218,86409,86646
63223,86413,86157
63229,86537,86405
63235,86603,86372
63240,86403,86435
63246,86359,86204
63251,86479,86307
63257,86132,86349
63263,86588,86401
63268,86409,86098
63274,86333,86271
63279,86466,86048
63285,86454,86573
63290,86657,86020
63296,86635,86066
63307,86338,86117
63307,86826,86925
63313,86614,86072
63318,86666,86178
63324,86412,86324
63329,86327,86117
63335,86407,86450
63341,86661,86705
63346,86589,86788
63352,86759,86773
63357,86624,86742
63363,86784,86462
63369,86770,86886
63374,86552,86942
63380,87269,86995
63385,86842,86987
63391,87086,87132
63396,86957,86928
63407,87027,86969
63408,87131,87108
63413,87168,86644
63419,87009,86991
63424,87581,87338
63430,87245,87249
63435,87533,87083
63441,87622,87129
63447,87651,87073
63452,87877,87464
63458,87779,87502
63464,87539,87597
63469,87574,87334
63475,87622,87465
63480,87593,88060
63486,87613,87912
63491,87911,88093
63497,87700,87941
63507,87909,88092
63508,88043,87940
63514,87923,88059
63519,88244,87667
63525,88277,88645
63530,88320,87955
63536,88537,88294
63542,88316,87894
63547,88453,88349
63553,88664,88222
63558,88576,88417
63564,88312,88280
63570,88451,88184
63575,88269,88001
63581,88326,88099
63586,88181,87792
63592,87775,87954
63597,87799,87251
63606,87576,87475
63609,87106,87205
63614,86772,87435
63620,86940,86731
63625,86780,86717
63631,86297,86387
63637,86037,86330
63642,86189,86096
63648,85399,85778
63653,85931,85713
63659,85557,85513
63664,85269,85201
63670,85399,85404
63676,85430,85295
63681,85332,85174
63687,85451,85067
63692,85261,85141
63698,85426,85305
63707,85246,85011
63709,85117,84864
63715,85254,85349
63720,85130,84862
63726,85219,84803
63731,85326,85100
63737,84909,84623
63743,85376,85188
63748,85361,85512
63754,85171,85435
63759,84945,85439
63765,85093,85262
63771,85386,85276
63776,85471,85686
63782,85828,85650
63787,85639,85730
63793,86025,85437
63798,86020,85641
63806,86191,85784
63810,86208,85928
63815,86178,85968
63821,85997,86026
63826,86280,86004
63832,86049,85978
63838,86441,86210
63843,86156,86201
63849,86478,86088
63854,86465,86492
63860,86441,86622
63865,86496,86333
63871,86758,86503
63877,86610,86623
63882,86802,86564
63888,86913,86942
63893,86964,86652
63899,86775,86764
63907,86674,86735
63910,87205,86714
63916,87166,86688
63921,87215,86919
63927,87003,87170
63932,86833,87177
63938,87055,86918
63944,87095,86947
63949,86878,87039
63955,87613,87139
63960,87227,87064
63966,87068,86947
63971,87186,87243
63977,87308,87189
63983,87204,87575
63988,87317,87725
63994,87674,87436
63999,87496,87804
64007,87657,87921
64011,87826,87670
64016,87816,87840
64022,87973,87860
64027,88284,87891
64033,88409,88012
64038,88058,88049
64044,88386,88221
64050,88579,88057
64055,88499,88339
64061,88444,88365
64066,88561,88392
64072,88569,88620
64078,88601,88501
64083,88565,88826
64089,89011,89014
64094,88547,89139
64100,89119,89142
64107,89185,89178
64111,89051,89159
64117,89030,89594
64122,89534,89133
64128,89566,89138
64133,89863,89367
64139,89870,89478
64145,89440,89196
64150,89688,89777
64156,90031,89430
64161,90232,89683
64167,90126,89608
64173,90450,90123
64178,90236,89761
64184,89944,90057
64189,90122,89624
64195,89968,89938
64200,90149,90471
64207,90440,90299
64212,90244,90430
64217,90102,90150
64223,90452,90564
64228,90764,91028
64234,90595,90749
64239,90820,90752
64245,90801,90854
64251,91443,90528
64256,91007,90866
64262,91333,90848
64267,91258,90928
64273,91553,91103
64279,91499,90832
64284,91263,91151
64290,91194,91202
64295,91170,90860
64301,91227,91248
64307,91206,91219
64312,91294,91383
64318,91534,91354
64323,90987,91128
64329,90917,90813
64334,90557,90813
64340,90779,90502
64345,90331,90524
64351,90125,89932
64357,89591,89790
64362,89480,89283
64368,89549,89261
64374,89512,88727
64379,88690,88697
64385,89305,88527
64390,88527,88073
64396,88235,87884
64407,88089,87785
64407,87508,87816
64413,87218,87597
64418,87165,87298
64424,87119,87288
64429,87165,87127
64435,87261,86851
64440,86946,86860
64446,87169,87283
64452,86757,87023
64457,87283,87095
64463,86922,87012
64468,86993,86952
64474,87010,86806
64480,86953,86894
64485,87183,86756
64491,86902,86942
64496,86903,86864
64506,87314,86734
64507,87015,86263
64513,87191,87006
64519,86889,87185
64524,86989,87199
64530,87102,86790
64535,87260,87179
64541,86908,87338
64546,87182,87035
64552,86989,87309
64558,87338,87154
64563,87388,87184
64569,87415,87329
64574,87385,87121
64580,87444,87183
64586,87615,86996
64591,87512,87353
64597,87178,87039
64607,87503,87090
64608,87487,87157
64614,87532,86884
64619,87676,87288
64625,86968,87249
64630,87396,87401
64636,87235,87414
64641,87269,87449
64647,87161,87496
64652,87398,87507
64658,87511,87339
64664,87327,87479
64669,87838,87010
64675,87907,87471
64681,87563,87597
64686,87668,87228
64692,87489,87482
64697,87905,87720
64707,87707,87362
64708,87878,87288
64714,87742,87050
64720,87527,87448
64725,88012,87932
64731,88293,87747
64736,87645,87812
64742,87903,87809
64747,87652,87750
64753,87926,87974
64759,88098,87962
64764,87844,87965
64770,88090,88102
64775,88318,88453
64781,88313,88107
64787,87977,88572
64792,88177,88555
64798,88501,88748
64807,88452,88441
64809,88329,88395
64815,88615,88425
64820,88987,88548
64826,89061,88310
64831,88797,88255
64837,88855,88294
64842,89044,88228
64848,89048,88759
64854,88895,88772
64859,88742,88696
64865,89156,89153
64870,89356,89160
64876,89181,89370
64882,89099,89375
64887,89068,89301
64893,89036,89415
64898,89336,89361
64907,89181,89346
64909,89337,89443
64915,89634,89345
64920,89692,89647
64926,89730,89807
64932,90102,89560
64937,89696,89552
64943,90195,89549
64949,89899,89572
64954,89988,89848
64960,90144,89862
64965,90000,90328
64971,90210,89706
64976,90499,89964
64982,90390,90086
64987,90218,90338
64993,90282,90086
64999,90630,89944
65006,90340,90396
65010,90189,90378
65015,90292,90295
65021,90049,90128
65027,89839,90111
65032,89945,89860
65038,89838,90212
65043,89648,89602
65049,89353,89422
65055,89488,89274
65060,89060,88922
65066,88541,88732
65071,88440,88110
65077,88020,87699
65082,87910,87700
65088,87748,87133
65094,87114,87161
65099,86926,86640
65107,86278,86363
65110,86799,86389
65116,86052,86309
65121,86269,85891
65127,85894,85916
65133,85824,85820
65138,85555,85702
65144,85345,85621
65149,85330,85415
65155,85736,85401
65161,85241,85360
65166,85231,85407
65172,85473,85402
65177,85120,85323
65183,85028,85216
65188,85159,85099
65194,85047,85138
65200,85217,85187
65207,85647,85211
65211,85271,84947
65216,85445,84922
65222,85100,85155
65228,85902,85398
65233,85289,84820
65239,85516,85057
65244,85235,85078
65250,85297,85130
65256,85234,85277
65261,85381,84944
65267,85733,84978
65272,85528,85070
65278,85436,85356
65283,85501,85163
65289,85133,84993
65295,85513,85072
65300,85728,85044
65307,85395,85366
65311,85533,85219
65317,85574,85501
65322,85330,85555
65328,85265,85261
65334,85143,85380
65339,85203,85252
65345,84843,84994
65350,85267,85313
65356,85193,85170
65362,85042,85404
65367,85114,85369
65373,85355,85317
65378,85135,85300
65384,85307,85306
65389,85046,84777
65395,85018,85362
65401,84880,85441
65407,85144,85077
65412,85361,84890
65417,84970,84868
65423,85372,85245
65429,85467,85162
65434,85456,85113
65440,85116,84905
65445,85121,84689
65451,85425,84992
65456,85386,85436
65462,85896,85089
65468,85625,85273
65473,85702,85475
65479,85485,85808
65484,85662,85398
65490,85701,85600
65496,85432,85586
65501,85725,85949
65507,85950,85351
65512,85675,85670
65518,85808,85414
65524,85855,86050
65529,85923,86029
65535,86132,86116
65540,86304,85978
65546,86295,85882
65551,86299,86352
65557,86132,86315
65563,86379,86030
65568,86459,86513
65574,86865,86252
65579,86832,86528
65585,86694,86628
65591,86767,86087
65596,87018,86595
65607,87017,86480
65607,86791,86964
65613,86830,87020
65618,86744,86721
65624,86979,86848
65630,87312,86828
65635,87039,87215
65641,86883,86987
65646,87381,87102
65652,87207,87056
65657,87142,87266
65663,87423,87209
65669,87098,87231
65674,87367,87439
65680,87484,87414
65685,86983,87590
65691,87213,86894
65697,86909,87036
65706,87161,86424
65708,86521,86960
65713,86442,86361
65719,86103,86358
65725,86116,85912
65730,85841,85226
65736,85403,85284
65741,84970,84736
65747,84548,84603
65752,84489,84154
65758,84402,83383
65764,84028,83418
65769,83575,83024
65775,83248,83044
65780,83247,82778
65786,83321,82667
65791,82685,82477
65797,82852,82303
65807,82513,82144
65808,82367,82176
65814,82411,81986
65819,82241,82122
65825,81756,81960
65831,81981,82156
65836,82035,82102
65842,82055,82072
65847,81453,82049
65853,81909,82000
65858,82130,81716
65864,81918,82027
65870,82312,82014
65875,81684,81922
65881,81964,81655
65886,82057,81703
65892,81985,81402
65898,82013,81874
65907,81936,81869
65909,81752,81758
65914,82386,81701
65920,82304,81636
65926,81972,81631
65931,82052,81843
65937,82192,81764
65942,81948,81900
65948,82410,81809
65953,81867,82331
65959,81765,82323
65964,82098,82180
65970,82288,81994
65976,81846,82112
65981,82307,82013
65987,82035,82230
65993,81981,82136
65998,82765,81715
66007,82316,82060
66009,82545,82038
66015,82325,81962
66020,82229,81930
66026,82498,81924
66032,82582,81883
66037,81887,82233
66043,82374,82233
66048,82164,81888
66054,82212,82234
66059,82077,82253
66065,81798,81893
66071,82213,82203
66076,82189,82270
66082,82273,82292
66087,81927,82510
66093,82215,82439
66098,82163,82451
66107,82438,82228
66110,82423,82392
66115,82660,82207
66121,82516,82191
66126,82906,81900
66132,82519,82357
66138,83132,82345
66143,83019,82528
66149,82711,82832
66154,83011,82591
66160,82885,82387
66165,83408,82919
66171,83187,83128
66177,83064,82926
66182,83259,83016
66188,83108,83449
66193,83376,83314
66199,83568,83516
66207,83366,83444
66210,83368,83301
66216,83275,83537
66221,83784,83665
66227,83652,83780
66232,83845,83799
66238,84028,83846
66244,84167,83814
66249,83994,83910
66255,83915,83618
66260,84127,84255
66266,84592,83837
66272,83993,84104
66277,84334,83803
66283,84562,84163
66288,84469,84143
66294,84536,84073
66299,84627,84218
66307,84663,84811
66311,85001,84867
66316,84733,85102
66322,84902,85098
66327,85043,85029
66333,85159,84932
66338,85491,85190
66344,85125,84990
66350,84921,85365
66355,85562,85572
66361,85259,85245
66367,85890,85070
66372,85491,85266
66378,85848,85542
66383,85601,85102
66389,85372,85180
66394,85258,84952
66400,85148,85200
66407,84833,85063
66411,84637,85106
66417,84667,84136
66422,84487,84278
66428,83875,84416
66433,83441,83996
66439,83349,83217
66445,83017,83309
66450,82839,82691
66456,82307,82539
66461,82325,81833
66467,81956,81915
66473,81922,81226
66478,81503,81352
66484,81255,80786
66489,80785,80501
66495,81283,80814
66500,81187,80562
66507,80836,80264
66512,80445,80257
66517,80309,80277
66523,80241,80114
66528,80298,79990
66534,79860,80060
66539,80325,80079
66545,80042,80237
66551,80232,80103
66556,79749,80336
66562,79978,80114
66567,79615,80132
66573,79866,79888
66579,79993,79742
66584,80127,79772
66590,80148,79848
66595,79962,79872
66601,80217,79692
66607,80008,79898
66612,79859,79942
66618,80394,79923
66623,79836,79994
66629,79832,79513
66634,79919,80029
66640,79998,79916
66646,79823,79596
66651,80059,79959
66657,80167,79785
66662,79947,79868
66668,80554,80180
66674,79987,80077
66679,80130,80077
66685,80458,80041
66690,80111,80465
66696,80290,80099
66707,80311,79810
66707,80115,80149
66713,80338,80155
66718,80396,80199
66724,80411,80102
66729,80564,80032
66735,80205,80204
66740,80316,80185
66746,80132,80416
66752,79972,80121
66757,80475,80174
66763,80516,79864
66768,80544,80331
66774,80465,80188
66780,80527,80309
66785,80799,79970
66791,80642,80205
66796,80733,80676
66807,80748,80128
66808,80781,80907
66813,80615,80370
66819,80456,80603
66824,80793,80669
66830,80624,80593
66835,80849,80756
66841,80704,80771
66846,80865,81229
66852,80960,80992
66858,81348,81075
66863,80885,81029
66869,81137,81173
66875,81260,81161
66880,81589,81276
66886,81637,81278
66891,81628,81426
66897,81413,81446
66907,81955,81074
66908,81731,81551
66914,81883,81802
66919,81981,81655
66925,82021,81909
66930,82053,81907
66936,82052,81882
66941,81901,82315
66947,81931,82599
66953,81811,82563
66958,82265,82165
66964,82201,82515
66969,82782,82378
66975,82605,82555
66981,83083,82675
66986,82805,82738
66992,83155,82603
66997,83152,82761
67007,83082,82885
67008,83137,82888
67014,83345,82836
67020,83291,83226
67025,83125,82644
67031,83342,83157
67036,83545,83080
67042,83758,83315
67047,83395,83419
67053,83645,83926
67059,83686,83926
67064,83825,83931
67070,83673,83754
67076,83536,83922
67081,84064,83888
67087,84327,84373
67092,84246,84258
67098,84430,84563
67107,84753,84334
67109,84894,84397
67115,84792,84221
67120,84678,84656
67126,85282,84868
67131,84998,84891
67137,85158,84885
67142,85135,84852
67148,84964,84965
67154,85156,85070
67159,85579,85056
67165,85389,85393
67170,85309,85241
67176,85145,85515
67181,85569,85632
67187,85668,85526
67193,85920,85717
67198,85612,86022
67207,85817,86240
67209,85384,85982
67215,86204,85869
67221,85862,85732
67226,85621,85877
67232,85809,85697
67237,85514,85603
67243,85401,85562
67249,84876,84985
67254,84845,84559
67260,84664,84363
67265,83972,83884
67271,83670,83805
67276,83887,83545
67282,83397,83207
67288,83033,82709
67293,82722,82588
67299,82522,82541
67307,82086,82098
67310,82126,81974
67315,82187,81877
67321,81946,82129
67327,81590,81802
67332,81527,81603
67338,81292,81149
67343,81517,81765
67349,81625,81512
67355,81458,81374
67360,81180,81151
67366,81015,81280
67371,81377,81080
67377,81544,81254
67382,81420,81254
67388,81197,81191
67394,81400,81075
67399,81804,80813
67406,81383,80900
67410,81230,80981
67416,81266,81328
67422,81287,81280
67427,81278,81035
67433,81411,80953
67438,81046,81076
67444,81197,81075
67450,81176,80946
67455,81274,80941
67461,81092,81335
67466,81124,81262
67472,81533,81133
67477,81072,81387
67483,81324,81329
67489,81562,81512
67494,80996,81366
67500,81234,80997
67507,81716,81226
67511,81839,81151
67516,81546,81267
67522,81520,81318
67528,81449,81638
67533,81766,81140
67539,81674,81370
67544,81628,81370
67550,81505,81290
67556,81835,81515
67561,81310,81373
67567,81520,81688
67572,81725,81621
67578,81378,81651
67583,81620,81537
67589,81700,81660
67595,82077,82163
67600,82211,81639
67606,81908,81989
67611,82003,81671
67617,81931,81585
67623,81867,81408
67628,81994,81779
67634,81922,81508
67639,81995,81672
67645,82099,81877
67650,82229,81706
67656,82101,81871
67662,82153,82143
67667,82309,82030
67673,82154,81905
67678,82196,82264
67684,82203,82231
67690,82193,82449
67695,82900,82701
67701,82518,82495
67707,82613,82794
67712,82747,82808
67717,82484,82733
67723,82605,83023
67729,83033,82702
67734,83155,82878
67740,83339,83044
67745,83037,82835
67751,83241,82809
67757,83216,83198
67762,83309,82847
67768,83513,83413
67773,83528,83253
67779,83192,83493
67784,83645,83494
67790,83715,83432
67796,83122,83268
67806,83616,83815
67807,83865,83459
67812,83942,83990
67818,84019,83850
67823,83883,84051
67829,84158,84033
67835,84143,84474
67840,84193,84526
67846,83820,84101
67851,84177,84302
67857,84496,84295
67863,84351,84047
67868,84714,84185
67874,84482,84615
67879,84707,84495
67885,85112,84400
67891,84954,84560
67896,85206,84610
67907,85089,84555
67907,85049,85079
67913,84923,84914
67918,85250,84816
67924,85104,85092
67930,85451,85400
67935,85568,85473
67941,85395,84944
67946,85579,84924
67952,85297,85671
67958,85499,85734
67963,85571,85684
67969,85587,85828
67974,85902,85771
67980,85764,86197
67985,85713,85688
67991,85878,86143
67997,86253,86111
68006,86665,85991
68008,86428,85923
68013,86173,86000
68019,86643,86085
68025,86484,86514
68030,86955,86543
68036,86643,86470
68041,86609,86291
68047,86719,86558
68052,86673,86548
68058,87011,86544
68064,86764,86595
68069,86875,86548
68075,87150,87123
68080,87224,87209
68086,87806,87005
68092,87066,86939
68097,87185,87458
68107,87583,87235
68108,87589,87689
68114,87530,87598
68119,87347,87758
68125,87611,87965
68131,87977,87645
68136,87994,87652
68142,87842,87875
68147,87758,87652
68153,87609,87496
68159,87812,87352
68164,87374,87386
68170,87405,87244
68175,87266,86684
68181,87050,86618
68186,87091,86321
68192,86537,85964
68198,86279,85512
68207,85897,85504
68209,85322,85344
68214,85238,85191
68220,84799,84954
68226,84855,84507
68231,84142,83927
68237,83563,84219
68242,83798,83766
68248,83075,83711
68253,83343,83373
68259,83129,82930
68265,83176,83182
68270,82767,82836
68276,83124,82885
68281,82478,82791
68287,82766,82649
68293,82509,82115
68298,82811,82268
68307,82419,82114
68309,82268,82215
68315,82349,82182
68320,82519,82055
68326,82148,81800
68332,82191,81976
68337,82181,81855
68343,81958,81910
68348,81673,81609
68354,81890,82175
68359,81829,81658
68365,81794,82259
68371,82006,81804
68376,81601,81833
68382,81678,81573
68387,81510,81679
68393,81387,81517
68399,81490,81910
68407,81560,81590
68410,81623,81681
68415,81937,81340
68421,81655,81051
68426,81894,81089
68432,81836,81255
68438,81802,81488
68443,81771,81338
68449,81337,81202
68454,81563,81518
68460,81542,81559
68466,81527,81336
68471,81525,81549
68477,81069,81687
68482,81406,81445
68488,81190,81702
68493,81511,81505
68499,81611,81674
68507,81367,81557
68510,81528,81420
68516,81304,81538
68521,81853,81160
68527,81707,81047
68533,81602,81158
68538,81390,81111
68544,81778,81149
68549,81692,81380
68555,81442,81179
68561,81108,81547
68566,81621,81415
68572,81299,81342
68577,81080,81622
68583,81441,81516
68588,81135,81703
68594,81164,81533
68600,81473,81397
68607,81483,81821
68611,81899,81612
68616,81732,81926
68622,81524,81793
68627,81851,81548
68633,82027,81843
68639,82150,81712
68644,82132,81494
68650,81925,81787
68655,82046,81713
68661,82108,82208
68667,82126,82124
68672,82214,82030
68678,82512,82139
68683,82407,82263
68689,82450,82331
68694,82602,81988
68700,82581,82288
68707,82852,82429
68711,82933,82477
68717,82615,82723
68722,82524,82999
68728,82534,83096
68733,82790,82882
68739,83249,83078
68745,82729,83234
68750,82886,83337
68756,82693,83357
68762,83159,82979
68767,83342,83220
68773,83582,83076
68778,83439,83346
68784,83733,83267
68789,83642,83393
68795,83885,83422
68800,83832,83570
68807,84193,83394
68812,83870,83882
68817,84065,83719
68823,84131,84018
68828,84368,84090
68834,84131,84221
68840,84271,83933
68845,84237,84426
68851,84554,84647
68856,84530,84708
68862,84239,84471
68868,84668,84763
68873,84522,84627
68879,84915,84954
68884,84980,84873
68890,84831,84980
68895,85348,85476
68901,85373,85138
68907,85354,84810
68912,85544,85142
68918,85446,85387
68923,85594,85087
68929,85513,85530
68934,85683,85048
68940,85548,85421
68946,85534,85086
68951,86280,85818
68957,86109,85856
68962,86047,85975
68968,86241,85716
68974,86059,85950
68979,86114,86374
68985,85854,85760
68990,86167,86065
68996,86540,86545
69007,86505,86527
69007,86325,86491
69013,86643,86342
69018,86787,86855
69024,86734,86605
69029,86800,86680
69035,86787,86910
69041,87182,86895
69046,87176,86797
69052,87256,86933
69057,87254,87129
69063,87572,87393
69069,87210,87416
69074,87396,87246
69080,87753,87368
69085,87628,87759
69091,87631,87446
69096,87654,87624
69107,87693,87747
69108,87812,87450
69113,87539,87734
69119,87620,87558
69124,87308,87240
69130,87198,87453
69135,87047,87004
69141,87144,86976
69147,86547,87151
69152,86744,86644
69158,86565,86282
69163,86402,86343
69169,85920,85905
69175,85740,85721
69180,85807,85602
69186,85825,85872
69191,85523,85440
69197,85358,85214
69207,85426,85181
69208,85639,84984
69214,85223,84725
69219,85199,84861
69225,85095,84830
69230,85013,85012
69236,85439,84930
69241,85005,84852
69247,85078,85200
69253,85132,84956
69258,85302,85553
69264,85126,84865
69269,84922,85274
69275,85280,85280
69281,85309,85632
69286,85275,85316
69292,85555,85317
69297,85549,85472
69307,85702,85338
69309,85678,85278
69314,85643,85593
69320,85598,85383
69325,85813,85751
69331,85880,85346
69336,85629,85436
69342,85664,85661
69348,85677,85553
69353,85452,85466
69359,85579,85797
69364,85496,85775
69370,85825,86108
69376,86132,85819
69381,86067,85855
69387,85929,85943
69392,85876,86142
69398,85878,86051
69407,86403,86181
69409,86121,85831
69415,86463,86597
69420,86882,86393
69426,86819,86633
69431,86939,86286
69437,86899,86584
69443,86521,86504
69448,87247,86875
69454,86683,86636
69459,86882,86276
69465,86999,86476
69470,86719,87048
69476,86720,86383
69482,86711,87075
69487,87272,86717
69493,86993,87080
69498,87150,87101
69507,87247,87614
69509,87296,87312
69515,87248,87224
69521,87253,87523
69526,87437,87531
69532,87797,87469
69538,87805,87505
69543,87574,87757
69549,87660,87545
69554,87881,87937
69560,88179,87708
69565,87956,87737
69571,87642,87829
69576,88056,87612
69582,87939,88006
69588,88228,88076
69593,88240,88206
69599,88233,88347
69607,88472,88463
69610,88353,88426
69615,88285,88280
69621,88780,88788
69627,88840,88797
69632,89002,88956
69638,88900,88409
69644,89342,88817
69649,89508,88906
69655,89157,88951
69660,89348,89071
69666,89763,89419
69671,89562,89398
69677,89658,89418
69682,89617,89253
69688,89524,89496
69694,89799,89651
69699,89908,89727
69706,90045,89591
69710,89957,89994
69716,90640,90180
69722,90139,90270
69727,90639,90014
69733,90407,90480
69738,90511,90376
69744,90524,90720
69750,90792,90251
69755,90495,90558
69761,90899,90655
69766,90606,90827
69772,91018,90820
69777,91024,90884
69783,91021,90819
69789,91205,90937
69794,91122,90693
69800,91090,91091
69807,91141,90937
69811,91819,91190
69817,91807,91186
69822,91597,91049
69828,91798,91426
69833,91639,91723
69839,91782,91921
69844,91695,91846
69850,91568,91805
69856,92011,91621
69861,91437,91813
69867,91573,91378
69872,91335,91931
69878,91369,91425
69883,91086,91485
69889,91335,91268
69895,90899,90822
69900,90778,90815
69906,90753,90916
69911,90535,90156
69917,90331,90057
69923,90043,89799
69928,89496,89591
69934,89605,89021
69939,89281,88980
69945,89092,88799
69951,88716,88770
69956,89092,88707
69962,88724,88542
69967,88454,88574
69973,88278,88209
69978,88028,88158
69984,87922,87847
69990,88040,87761
69995,87751,88234
70001,88225,87853
70007,87928,87797
70012,87723,87685
70018,88160,87779
70023,87989,87863
70029,88253,87814
70034,88015,87683
70040,87768,87776
70045,88334,87686
70051,88198,87674
70057,88184,87452
70062,88313,87504
70068,87910,87612
70073,87983,87445
70079,88048,87863
70085,87919,87941
70090,87917,88464
70096,88037,88320
70106,88114,88046
70107,88031,87747
70112,87708,88097
70118,87796,88058
70124,87952,88005
70129,88152,87987
70135,88416,88213
70140,88444,88465
70146,88700,88543
70152,88458,88152
70157,88557,88393
70163,88623,88144
70168,88534,88839
70174,88460,88226
70179,88235,88211
70185,88850,88204
70191,88542,88093
70196,88198,88085
70207,88459,88318
70207,88163,88781
70213,88321,88293
70218,88132,88503
70224,88259,88342
70230,88371,88530
70235,88352,88334
70241,88452,88644
70246,88335,88198
70252,88598,88269
70258,88239,88300
70263,88365,88252
70269,88892,88632
70274,88755,88273
70280,88267,88702
70286,88622,88769
70291,88318,88395
70297,88801,88354
70307,88770,88613
70308,89099,88504
70313,88576,88717
70319,89012,88703
70325,88977,88843
70330,89050,88698
70336,88939,88972
70341,89033,89140
70347,89483,89054
70352,89356,89142
70358,89594,89566
70364,89400,89031
70369,89429,89249
70375,89735,89221
70380,89785,89563
70386,89514,89213
70392,89706,89622
70397,89631,89641
70407,90039,89750
70408,89626,89738
70414,89788,89928
70419,89966,90008
70425,89941,90038
70431,90209,90148
70436,90264,90027
70442,90304,90288
70447,90158,90464
70453,90374,90309
70459,90499,90392
70464,90570,90258
70470,90687,90037
70475,90874,90464
70481,90443,90545
70487,90851,90430
70492,90733,90658
70498,91071,90369
70507,90920,90627
70509,91111,90787
70514,90877,90638
70520,90922,90952
70526,91012,90999
70531,91041,91220
70537,90993,91058
70542,91016,91437
70548,91188,91217
70553,91090,91139
70559,91506,91534
70565,91416,91385
70570,91654,91591
70576,91992,91576
70581,91814,91431
70587,91833,91730
70593,91774,91703
70598,92278,91758
70607,91989,91641
70609,92081,91132
70615,92084,91987
70621,91791,91655
70626,91939,92174
70632,91828,91856
70637,91354,91657
70643,91341,91542
70648,91107,91022
70654,90661,91090
70659,90624,90569
70665,90382,90367
70671,89812,90245
70676,89807,89508
70682,89599,89520
70687,89293,89017
70693,88954,88557
70699,88514,88421
70707,88398,87818
70710,87761,87955
70715,87587,87555
70721,87564,87128
70727,87186,86890
70732,86977,86874
70738,86812,86605
70743,86532,86704
70749,86478,85897
70754,86517,86257
70760,86413,86538
70766,86546,86447
70771,85993,85882
70777,85659,85912
70782,86235,85830
70788,85967,85843
70794,86002,85837
70799,85664,85823
70807,86029,85849
70810,85981,86171
70816,86102,85746
70821,85629,85830
70827,85955,85559
70833,85787,85619
70838,86186,85663
70844,85552,85603
70849,85676,85361
70855,85591,85262
70861,85417,85541
70866,85624,84855
70872,85569,85576
70877,85723,85647
70883,85224,85458
70888,85369,85127
70894,85750,85559
70900,85683,85616
70907,85440,85423
70911,85307,85490
70916,85478,85532
70922,85560,85298
70928,85584,85324
70933,85668,85442
70939,85578,85046
70944,85606,85188
70950,85552,85148
70955,85498,85442
70961,85292,85377
70967,85346,85092
70972,85403,85423
70978,85458,85241
70983,85045,85151
70989,85462,85237
70994,84950,84799
71000,85225,84699
71007,85330,84960
71011,85000,85175
71017,85083,85099
71022,85189,84859
71028,84816,84859
71034,85061,85224
71039,85274,85092
71045,85141,84860
71050,85200,85113
71056,84962,85338
71062,85418,85023
71067,85500,84764
71073,85186,85092
71078,85282,85337
71084,85137,85203
71089,85094,84951
71095,85264,85078
71101,85492,85177
71107,84956,85391
71112,85705,85549
71117,85575,85425
71123,85606,85526
71128,85465,85877
71134,85572,85729
71140,85558,85591
71145,85974,85777
71151,86109,85632
71156,85881,85969
71162,86054,85924
71168,86336,85604
71173,85873,85704
71179,86406,85452
71184,86243,85900
71190,86211,86081
71195,86364,86429
71201,86360,86056
71207,85878,86301
71212,86191,86290
71218,86391,86483
71223,86499,86523
71229,86324,86417
71235,86839,86775
71240,86710,86910
71246,87070,86940
71251,86838,86645
71257,86877,87031
71263,86855,86812
71268,87191,86629
71274,87085,86763
71279,86875,86945
71285,87115,87227
71290,87515,87121
71296,87307,86648
71307,87417,87216
71307,87307,87207
71313,87234,87308
71318,87623,87323
71324,87435,87264
71329,87414,87391
71335,87635,87436
71341,87582,87761
71346,87753,87756
71352,87756,87778
71357,87598,87755
71363,87983,88060
71369,87854,87899
71374,88402,88250
71380,88065,88097
71385,88262,88426
71391,88323,88042
71396,88529,88181
71407,88340,88302
71408,88554,87992
71413,88182,88120
71419,88396,87927
71424,88096,88080
71430,88254,87982
71436,87785,87505
71441,87660,87581
71447,87100,87367
71452,87197,86863
71458,86862,86608
71464,86595,86417
71469,86257,86096
71475,86135,85989
71480,85685,85777
71486,85165,85289
71491,84808,84999
71497,84755,84452
71506,84299,84337
71508,84111,84249
71514,84015,83953
71519,83430,83406
71525,83451,83125
71530,83481,82981
71536,82751,83109
71542,83105,82767
71547,82869,82584
71553,82449,82493
71558,82349,82161
71564,82527,82068
71570,82306,82189
71575,82244,81758
71581,82239,81976
71586,81903,81872
71592,82230,81928
71597,81899,81852
71607,81902,82057
71609,81890,81707
71614,81824,82016
71620,81736,81911
71625,81607,81660
71631,81540,81518
71636,81309,81548
71642,81567,81611
71648,81414,81287
71653,81560,81433
71659,81384,81081
71664,81171,81051
71670,81378,81213
71676,81568,80989
71681,81141,80751
71687,81219,80813
71692,81392,80876
71698,81281,80691
71707,81220,80858
71709,80792,81066
71715,81343,80907
71720,80933,80918
71726,81270,81201
71731,80950,80696
71737,80743,81080
71743,80923,81110
71748,80968,80869
71754,80908,81202
71759,80971,80963
71765,81072,81099
71770,81152,80747
71776,80718,80889
71782,81114,81024
71787,80962,80950
71793,80820,80446
71798,80877,81014
71807,81145,80780
71810,81105,80854
71815,81277,80902
71821,81192,80989
71826,81353,80989
71832,81394,81009
71838,81221,80955
71843,80979,80851
71849,81032,80604
71854,81137,81102
71860,81296,81082
71865,81173,81044
71871,81019,81110
71877,81222,81050
71882,80973,81228
71888,80996,81331
71893,81344,81277
71899,81198,81243
71907,81341,81475
71910,81449,81824
71916,81261,81269
71921,81669,81443
71927,81471,81630
71932,81666,81608
71938,81955,81750
71944,81789,81905
71949,81859,81655
71955,82104,81859
71960,82018,82230
71966,82129,81571
71971,82087,81857
71977,82147,82049
71983,82211,81796
71988,82343,81961
71994,82263,81998
71999,82310,82243
72006,82421,82643
72011,82445,82280
72016,82737,82007
72022,82686,82512
72027,82363,82599
72033,82620,82447
72039,82494,82288
72044,83090,82867
72050,82983,82907
72055,83175,83071
72061,83217,82736
72066,83419,82839
72072,83091,83606
72077,83379,83336
72083,83418,83594
72089,83699,83787
72094,83585,84008
72100,83923,83639
72107,83701,83843
72111,83973,83472
72117,84182,83563
72122,84216,83630
72128,84473,83571
72133,84182,83844
72139,84221,84072
72145,84465,84053
72150,84558,84291
72156,84352,83799
72161,84256,83945
72167,84355,84186
72172,84497,84330
72178,84725,84433
72184,84568,84892
72189,84528,84876
72195,84724,84943
72200,84830,84848
72206,85205,85095
72211,84960,84739
72217,84761,85122
72223,85142,85133
72228,85348,84945
72234,85335,85241
72240,85493,85602
72245,85285,85268
72251,85465,85405
72256,85890,85657
72262,85708,85434
72267,85743,85827
72273,85922,85654
72278,85618,85548
72284,85941,85752
72290,86181,86190
72295,85744,85719
72301,86050,85883
72307,86148,85780
72312,85823,85843
72318,85623,85657
72323,85557,85681
72329,85487,85298
72334,85052,84716
72340,85177,84359
72346,84502,84436
72351,84381,83931
72357,84064,83813
72362,83655,83256
72368,83278,83211
72373,83186,82730
72379,82410,82717
72385,82278,82105
72390,81554,81755
72396,81725,81194
72407,81260,81341
72407,81028,81010
72412,80715,80980
72418,80675,80638
72424,80434,80520
72429,80158,80538
72435,79902,79978
72440,79956,79830
72446,79672,79860
72452,79797,79356
72457,79650,79336
72463,79694,79158
72468,79662,79216
72474,79804,78661
72479,79233,78958
72485,79243,79010
72491,79166,78982
72496,78774,78459
72507,78824,78888
72507,78542,78723
72513,78649,78631
72518,78886,78997
72524,78420,78530
72530,78098,78306
72535,78572,78837
72541,78721,78114
72547,78473,78294
72552,78328,78263
72558,78551,78111
72563,78168,78079
72569,78320,77730
72574,78242,78132
72580,78200,78069
72585,78463,77706
72591,78266,78183
72597,78387,77984
72607,78375,78274
72608,78057,78104
72613,78302,78201
72619,77964,78273
72625,78143,78440
72630,78156,78342
72636,77873,78413
72641,78056,77954
72647,78196,78137
72653,78230,78129
72658,78475,77989
72664,77982,78521
72669,78223,77995
72675,78278,78176
72680,78588,77767
72686,78121,77567
72692,77930,77850
72697,78202,77951
72707,78062,77572
72708,77953,77407
72714,78205,77660
72719,77997,77618
72725,78004,77796
72731,78241,77689
72736,77533,77461
72742,77962,78054
72747,77644,77837
72753,77732,78044
72759,78286,78016
72764,78321,78066
72770,78132,78025
72775,77992,78351
72781,78340,78059
72787,78184,78172
72792,78415,78651
72798,78513,78098
72807,78299,78335
72809,78454,78433
72814,78822,78430
72820,78631,78692
72826,78691,78591
72831,78727,78532
72837,78686,78715
72842,78971,78583
72848,79079,79090
72853,79068,78819
72859,78858,78823
72865,78857,78874
72870,78897,78756
72876,78655,78639
72882,79166,79008
72887,78985,79399
72893,79580,79342
72898,79490,79177
72906,79439,79315
72909,79492,79490
72915,79566,79336
72921,79424,79142
72926,79389,79031
72932,79508,79924
72937,79540,79359
72943,79944,79405
72948,79351,79531
72954,80024,79459
72960,79926,79856
72965,79717,79967
72971,79700,80061
72976,80006,80008
72982,79765,79962
72988,80014,80349
72993,80022,80293
72999,80227,80429
73007,80200,80254
73010,80432,79959
73015,80330,80377
73021,80745,80355
73027,80838,80355
73032,80772,80372
73038,80736,80803
73043,81035,80865
73049,80983,80743
73054,81053,80429
73060,80988,80933
73066,81117,81207
73071,81351,81475
73077,81236,81171
73082,81787,81350
73088,81514,81382
73094,81223,81609
73099,81777,81480
73107,81576,81904
73110,81884,81650
73116,81478,81804
73122,82029,81652
73127,82194,81817
73133,81974,82032
73138,81926,82046
73144,82148,81874
73149,82110,81730
73155,82544,81908
73161,82390,82188
73166,82869,82420
73172,82434,82174
73177,82677,82262
73183,82554,82105
73188,82763,82140
73194,82573,82654
73200,82745,82480
73207,82643,82661
73211,82883,82981
73216,82638,82659
73222,82857,83043
73228,82830,82810
73233,82688,82922
73239,82973,82685
73244,82411,82823
73250,82278,82280
73255,82337,82177
73261,82444,81883
73267,81820,81224
73272,81854,81088
73278,81123,81134
73283,81104,80436
73289,80839,80254
73295,80471,79769
73300,79873,79505
73307,79767,79460
73311,79236,79036
73317,79133,78654
73322,78625,78404
73328,78288,78190
73334,77858,78289
73339,77900,77617
73345,77561,77738
73350,77636,77329
73356,77452,77557
73362,77196,77221
73367,77371,76950
73373,77051,77127
73378,76939,76975
73384,76890,76943
73389,76688,76732
73395,76889,76480
73401,76704,76920
73407,76672,76431
73412,76414,76470
73417,76574,76294
73423,76918,76347
73428,76304,76351
73434,76405,76335
73440,76197,76280
73445,76579,76093
73451,76157,75919
73457,76236,76268
73462,75859,76004
73468,75946,76090
73473,75727,76047
73479,75723,75909
73484,75958,76055
73490,76100,75869
73496,76135,75993
73501,75857,75858
73507,75969,76153
73512,76160,76038
73518,76187,75883
73523,75940,75982
73529,75987,75531
73535,76231,75929
73540,76122,75866
73546,76153,75615
73551,76105,75868
73557,75888,75890
73563,76238,75999
73568,76052,75938
73574,76145,75933
73579,75979,75732
73585,76281,75913
73590,76333,75918
73596,76206,76173
73606,75896,75821
73607,75814,75845
73613,75637,75997
73618,75736,75735
73624,75804,75927
73629,76178,75862
73635,76193,76111
73641,76072,75654
73646,75926,75827
73652,75969,76019
73658,76080,76092
73663,76134,75761
73669,75912,75801
73674,76428,76166
73680,76305,76008
73685,76364,75842
73691,76229,76048
73696,76019,76170
73707,76443,76092
73708,76649,76289
73713,76339,76264
73719,76464,76256
73724,76740,76532
73730,76809,76859
73736,76679,76296
73741,76813,76769
73747,77141,76926
73752,77067,76989
73758,77117,77136
73764,77208,76873
73769,77254,77382
73775,77797,77162
73780,77465,77446
73786,77711,77292
73791,77673,77336
73797,77787,77520
73807,77797,77560
73808,77897,77576
73814,78046,77815
73819,77921,77909
73825,78083,77961
73830,78004,78062
73836,77880,78167
73842,78261,78622
73847,78642,78236
73853,78383,78477
73858,78313,78460
73864,78623,78480
73870,78828,78736
73875,78838,78604
73881,79208,78581
73886,78868,78482
73892,79216,78936
73897,79271,78973
73907,79645,78812
73909,79040,79213
73914,79287,79050
73920,79187,79241
73925,79385,79307
73931,79291,79479
73937,79068,79194
73942,79434,79980
73948,79644,79697
73953,79389,79866
73959,79950,80185
73965,79730,80281
73970,80161,79854
73976,79976,80245
73981,80512,80344
73987,80495,79990
73992,80817,80357
73998,80967,80401
74007,81004,80213
74009,81223,81035
74015,81256,80920
74020,81235,80836
74026,81381,80705
74031,81015,81034
74037,81136,80968
74043,81324,81134
74048,81498,81099
74054,81256,81422
74059,81256,81233
74065,81648,81643
74070,81692,81975
74076,81682,81687
74082,81491,81713
74087,82030,81941
74093,81866,81949
74099,82340,81793
74106,82233,81880
74110,82412,81957
74115,82486,81973
74121,82460,82121
74126,82568,81580
74132,82335,82254
74138,82552,82124
74143,82588,82135
74149,82380,82471
74154,82528,82050
74160,82239,82576
74165,82047,82213
74171,81789,82217
74177,81977,81836
74182,81820,81865
74188,81552,81567
74193,80802,81413
74199,80648,80965
74207,80519,80475
74210,80346,80203
74216,79836,80024
74221,79656,79777
74227,79836,79359
74232,79203,78909
74238,79203,78945
74244,79037,78647
74249,78882,78182
74255,78582,78056
74260,78175,78237
74266,77542,77675
74271,77890,77892
74277,77546,77945
74283,77756,77634
74288,77702,77659
74294,77920,77569
74299,77541,77512
74306,77361,77528
74310,77574,77473
74316,77128,77075
74322,77619,77128
74327,77303,77479
74333,77506,77053
74339,77405,76624
74344,77355,76975
74350,77384,76936
74355,77193,76776
74361,76869,77100
74366,77372,77330
74372,76713,77150
74377,76687,76870
74383,76677,76706
74389,76485,76906
74394,76557,76616
74400,76545,76503
74407,76621,76882
74411,77001,76513
74417,76901,76610
74422,76713,76183
74428,76420,76350
74433,76409,76330
74439,76261,76077
74445,76384,76310
74450,76365,75953
74456,76272,75747
74461,76292,75654
74467,75990,75735
74472,75955,75896
74478,75676,76072
74484,76037,75719
74489,75368,75992
74495,75948,75526
74500,75810,75680
74507,75690,75605
74511,75593,75987
74517,76110,75593
74523,75783,75759
74528,75911,75349
74534,75923,75760
74539,75696,75647
74545,75732,75792
74551,75536,75565
74556,75215,75655
74562,75745,75596
74567,75826,75774
74573,75564,75902
74578,75212,76005
74584,75798,75871
74590,75908,76213
74595,76144,75971
74601,76396,76290
74607,76333,76122
74612,76594,75986
74618,76536,76091
74623,76392,76084
74629,76532,76109
74634,76693,76320
74640,76629,76236
74646,76812,76430
74651,76719,76796
74657,76904,76952
74662,76692,76980
74668,76643,76722
74673,76784,76986
74679,77052,77047
74685,76999,77229
74690,76940,77537
74696,77315,77133
74707,77396,77431
74707,77381,77415
74713,77424,77314
74718,77637,77487
74724,77602,77354
74729,77367,77304
74735,77829,77414
74740,77863,77491
74746,78365,77560
74752,77795,77292
74757,78442,77454
74763,77952,77699
74768,78226,77624
74774,77986,77898
74779,78187,77777
74785,78305,78230
74791,78206,78310
74796,77947,77956
74806,78086,78519
74807,78308,78571
74813,78255,78690
74819,78906,78739
74824,78800,78872
74830,78597,78954
74835,79072,79205
74841,79028,79231
74846,79452,78951
74852,79245,79183
74858,79398,79193
74863,79652,79074
74869,79923,79760
74874,79709,79425
74880,79921,79473
74886,80186,79972
74891,80183,79827
74897,80140,79873
74907,79958,80288
74908,80114,80271
74914,80098,80269
74919,80518,80197
74925,80335,80625
74930,80806,80967
74936,80600,80678
74941,81422,80711
74947,80947,81002
74953,81210,80936
74958,81286,81099
74964,81248,81435
74969,81601,81104
74975,81751,81047
74981,81657,81212
74986,81645,81235
74992,81494,81677
74997,81889,81709
75006,81995,81797
75008,81824,81760
75014,82057,82008
75020,81987,81946
75025,82346,82114
75031,82369,82166
75036,81617,82402
75042,82457,82624
75047,82569,82638
75053,82665,82703
75059,82978,83014
75064,82810,82925
75070,82932,83017
75075,82812,82695
75081,82819,82417
75087,83085,82546
75092,82937,82446
75098,82918,82173
75107,82561,82271
75109,82394,82250
75115,82161,81677
75120,81924,81641
75126,81381,81459
75131,81278,81288
75137,80965,81444
75142,80630,80899
75148,80226,80422
75154,80256,80479
75159,80411,80061
75165,79792,80054
75170,79783,79661
75176,79560,79864
75181,79663,79617
75187,79171,79413
75193,79525,79016
75198,79254,78807
75207,79403,79025
75209,79164,79092
75215,79185,78497
75221,79209,78710
75226,79268,78895
75232,79009,78751
75237,79367,78539
75243,79078,78939
75248,79166,78722
75254,78801,78757
75260,78827,78947
75265,78602,78979
75271,78992,78999
75276,79071,78935
75282,79058,78945
75288,78819,78972
75293,78641,79078
75299,78559,79082
75307,78876,78689
75310,78995,78729
75315,79083,79241
75321,79222,78857
75327,79069,79096
75332,79118,79046
75338,78989,78684
75343,79243,79030
75349,78955,78565
75355,79052,79245
75360,78960,79115
75366,79060,79456
75371,78739,79064
75377,79312,79444
75382,79305,79264
75388,79499,79063
75394,79423,79502
75399,79246,79203
75407,79385,79224
75410,79715,79486
75416,79558,78904
75421,79258,79396
75427,79510,79438
75433,79586,79351
75438,79658,79101
75444,79592,79223
75449,79426,79120
75455,79334,79337
75461,79270,79278
75466,79391,80004
75472,79290,79676
75477,79362,79656
75483,79265,79665
75488,79516,79517
75494,79401,79856
75500,79725,79651
75507,79318,79515
75511,79516,79660
75516,79961,79977
75522,80137,79477
75528,79785,79745
75533,79965,79545
75539,79500,79779
75544,79976,79559
75550,80119,79697
75556,79802,79546
75561,79922,79645
75567,80121,79753
75572,80321,80104
75578,80378,80112
75583,80404,80497
75589,80682,80552
75594,80330,80724
75600,80567,80400
75607,80379,80675
75611,80498,80626
75617,80637,80838
75622,80593,80820
75628,81182,80782
75634,80989,80800
75639,81348,81041
75645,81255,80870
75650,81147,80699
75656,81428,80760
75662,81387,81079
75667,81304,81039
75673,81396,81146
75678,81678,81259
75684,81373,81207
75689,81584,81609
75695,81438,81550
75701,81552,81686
75707,81621,81685
75712,81933,82155
75717,81948,81823
75723,81593,82058
75729,82047,81894
75734,81992,82089
75740,82063,82007
75745,82216,81944
75751,82274,82237
75756,82274,81901
75762,82480,82164
75768,82496,82122
75773,82477,82317
75779,82805,82263
75784,82790,82314
75790,82750,82264
75795,82813,82729
75801,82735,82908
75807,82907,83211
75812,83096,82887
75818,83239,82835
75823,82957,82959
75829,83313,83719
75835,83188,83439
75840,83092,83631
75846,83527,83544
75851,83476,83440
75857,83686,83668
75863,83862,83545
75868,83684,83326
75874,83602,83341
75879,83771,83039
75885,83795,83080
75890,83383,83220
75896,83105,83140
75907,82933,82671
75907,82481,82746
75913,82583,82654
75918,82518,82440
75924,82069,82422
75929,81672,81931
75935,81656,81707
75941,81392,81469
75946,81179,81388
75952,81299,81085
75957,80806,81099
75963,80739,80814
75969,80804,80472
75974,80624,80095
75980,80320,80267
75985,80193,79901
75991,80015,79929
75996,80542,79790
76006,80144,79845
76008,79738,79640
76013,79874,79817
76019,79921,80017
76024,79737,79847
76030,79506,79619
76036,79719,79642
76041,79838,79691
76047,79508,79584
76052,79949,79642
76058,79922,79562
76064,79842,79580
76069,80067,79539
76075,79827,79615
76080,79845,79478
76086,80034,79677
76091,79965,79601
76097,79769,79473
76107,79838,79701
76108,80122,79898
76114,79990,80011
76119,79833,80540
76125,80257,80227
76130,80137,80230
76136,80319,80028
76142,80410,80084
76147,80238,80347
76153,80449,80480
76158,80318,80604
76164,80427,80511
76169,80534,80434
76175,80637,80672
76181,80652,80157
76186,80718,80641
76192,80293,80454
76198,80063,80414
76206,80380,80436
76209,80366,80289
76214,80509,80333
76220,80400,80625
76225,80445,80454
76231,80574,80313
76237,80406,80662
76242,80817,80580
76248,80672,80357
76253,80491,80422
76259,80868,80154
76264,80636,80443
76270,80461,80323
76276,80661,80497
76281,80594,80475
76287,81077,80821
76292,80746,80530
76298,80646,80693
76307,80880,80865
76309,80982,81065
76315,80935,80847
76320,81119,80908
76326,80810,81348
76332,81143,81212
76337,81236,81083
76343,81526,81104
76348,81335,81420
76354,81751,81304
76359,81773,81408
76365,81516,81454
76370,81748,81431
76376,81840,81804
76382,81835,81559
76387,81740,81443
76393,81811,82093
76398,82193,81812
76407,81875,81987
76410,82000,82193
76415,81857,82208
76421,82420,82509
76426,82059,82638
76432,82306,82570
76438,82481,82619
76443,82701,82508
76449,82950,82511
76454,82778,82684
76460,82795,82923
76465,83532,82809
76471,83360,82929
76477,83176,82999
76482,83517,83148
76488,83446,82901
76493,83556,83019
76499,83974,83447
76507,83456,83602
76510,83409,83713
76516,83815,83558
76521,83772,83580
76527,83434,83431
76532,83836,83836
76538,83798,84212
76544,84037,84032
76549,84116,84173
76555,84150,84293
76560,84285,84194
76566,84378,84091
76571,84501,84312
76577,84872,84467
76583,84841,84181
76588,84646,84474
76594,84900,84512
76599,84841,84421
76607,84911,84455
76611,84636,84666
76616,84577,84643
76622,85040,85019
76627,85151,85046
76633,85332,85199
76638,85154,85329
76644,85042,85525
76650,85360,85715
76655,85618,85354
76661,85596,85468
76666,85382,85369
76672,85575,85467
76678,85770,85029
76683,85308,85264
76689,85374,85258
76694,85217,84976
76700,84931,85057
76706,84824,85006
76711,84917,84740
76717,84203,84214
76722,84229,84088
76728,84033,84265
76733,83955,83685
76739,83113,83435
76745,83490,83103
76750,82937,82830
76756,83021,82469
76761,82643,81892
76767,82611,81820
76773,82062,82080
76778,81941,81755
76784,81819,81596
76789,81107,81441
76795,81449,81167
76800,81290,81457
76807,81213,81246
76812,81260,81092
76817,81298,81140
76823,81265,81083
76828,80927,81216
76834,81169,80888
76839,81208,80901
76845,81109,80528
76851,80786,80704
76856,80803,81036
76862,80905,80755
76867,80978,80593
76873,80668,80868
76879,80527,80867
76884,80402,80914
76890,80598,80636
76895,80608,80951
76901,80875,80728
76907,80424,80760
76912,80681,80431
76918,80898,80542
76923,80960,80361
76929,80938,80415
76934,81133,80628
76940,80785,80796
76945,80996,80650
76951,80859,80706
76957,80849,80614
76962,80709,80987
76968,80936,80814
76974,80673,81104
76979,81229,80849
76985,80914,81037
76990,81051,81039
76996,80541,80911
77007,80720,80962
77007,81188,81055
77013,81068,80960
77018,81046,80725
77024,80914,80664
77029,80666,80769
77035,80852,80460
77040,80696,80806
77046,80989,80630
77052,80961,80932
77057,81114,80729
77063,80625,80757
77068,80866,81111
77074,80994,80919
77080,80862,80902
77085,80819,80894
77091,80941,81102
77096,81090,81220
77106,81110,81474
77107,81117,80846
77113,81182,81326
77119,81429,81022
77124,81441,80979
77130,81527,81321
77135,81418,80743
77141,81245,81357
77146,81333,80943
77152,81527,81235
77158,81391,81252
77163,81665,81329
77169,81578,81466
77175,81705,81463
77180,81760,81633
77186,81759,82192
77191,81882,82166
77197,81564,81941
77207,82041,81921
77208,82014,82213
77214,82028,82039
77219,82726,82458
77225,82341,82509
77230,82494,82254
77236,82631,82461
77241,82618,82243
77247,83152,82251
77253,83043,82754
77258,82907,82712
77264,82722,82603
77269,83329,82738
77275,82966,82682
77281,82656,83062
77286,82881,82563
77292,83214,82839
77297,83268,82967
77307,83070,83247
77308,83035,83191
77314,83328,83436
77320,83334,83188
77325,83261,83509
77331,83803,83416
77336,83740,83515
77342,83752,83477
77348,83819,83349
77353,84042,83619
77359,84218,83506
77364,84188,83699
77370,83826,84207
77375,84234,83964
77381,83878,84003
77387,84474,84585
77392,83996,84617
77398,84594,84275
77407,84245,84753
77409,84760,84345
77414,84464,84509
77420,84749,84513
77426,84661,84602
77431,84908,84473
77437,85037,84864
77442,84954,84455
77448,84794,84930
77454,85049,84745
77459,85229,84781
77465,85388,84746
77470,85116,85033
77476,85389,85345
77481,85551,85669
77487,85266,85453
77493,85337,85564
77498,85309,85411
77507,85258,85641
77509,85278,85149
77515,85292,85369
77521,85446,84920
77526,85048,84721
77532,85010,84420
77537,84869,84397
77543,84373,84285
77549,84458,83827
77554,84037,83676
77560,83427,83326
77565,83566,83252
77571,82861,82728
77576,82460,82053
77582,82025,82044
77588,82011,82042
77593,81910,81741
77599,81423,81727
77606,81559,81400
77610,81085,81340
77615,80784,81333
77621,80928,80722
77627,80488,80936
77632,80531,80569
77638,80735,79985
77643,80437,80229
77649,80451,79620
77655,80617,79880
77660,80391,79817
77666,80061,79766
77671,79957,79824
77677,79944,79483
77682,80072,79839
77688,79934,79915
77694,79778,79659
77699,79329,79345
77707,79840,79530
77710,79581,79468
77716,79205,79421
77721,79096,79543
77727,79723,79176
77733,79532,79703
77738,79692,79354
77744,79507,79364
77750,79501,79179
77755,79143,79041
77761,79426,78919
77766,79388,79126
77772,79492,79479
77777,79243,79382
77783,79466,79214
77788,79209,79026
77794,79431,79155
77800,79232,79407
77807,79464,79085
77811,79144,79256
77816,79374,79683
77822,79447,79124
77828,79433,79350
77833,79334,79719
77839,79614,79257
77844,79378,79369
77850,79436,79461
77856,79178,79451
77861,79546,79142
77867,79546,79346
77872,79364,79321
77878,79366,79316
77883,79389,79370
77889,79272,79490
77895,79419,79009
77900,79452,79192
77907,79423,79253
77911,79367,79256
77917,79661,79191
77922,79408,79080
77928,79048,79554
77934,79400,79439
77939,79511,80010
77945,79422,79558
77951,79516,79368
77956,79634,79642
77962,79942,79529
77967,79875,79976
77973,79635,79433
77978,79901,79425
77984,79724,79566
77989,80348,79567
77995,79929,79511
78001,79710,79650
78007,80049,79660
78012,79858,80139
78017,80459,79665
78023,80321,79975
78029,80182,79718
78034,80128,80032
78040,80435,79902
78045,80043,80497
78051,80252,80701
78057,80271,80818
78062,80494,80547
78068,80246,80978
78073,80492,80917
78079,80667,81119
78084,80684,80802
78090,80831,81058
78095,80995,81131
78101,81342,81074
78107,81500,80750
78112,81261,81042
78118,81452,81028
78123,81046,81075
78129,81834,81005
78135,81594,81319
78140,81334,81367
78146,81752,81376
78151,81747,81551
78157,81416,81127
78163,81689,81874
78168,81650,81521
78174,81644,81969
78179,82034,81870
78185,81900,81879
78190,82074,81675
78196,82124,82221
78207,82539,81764
78207,82288,82058
78213,82422,82163
78218,82151,82275
78224,82614,82011
78229,82837,82333
78235,82888,82265
78241,82871,82180
78246,82996,81934
78252,82655,82707
78257,82748,82466
78263,82879,82602
78269,83100,82514
78274,83047,82988
78280,82812,83272
78285,82901,83132
78291,83116,83256
78297,83012,83486
78306,83333,83066
78308,83403,83439
78313,83589,83449
78319,83572,83916
78324,83671,83452
78330,83576,83791
78336,83766,83705
78341,83735,83495
78347,84312,83872
78352,84226,83890
78358,84266,84093
78364,84128,84096
78369,84495,83909
78375,84480,83791
78380,84288,84186
78386,83786,83982
78391,83817,83704
78397,83528,83931
78407,83652,83583
78408,82983,83194
78414,82963,83344
78419,82849,82965
78425,82559,82645
78431,82567,82329
78436,82028,81865
78442,81731,81542
78447,81757,81456
78453,81237,80710
78458,80768,80494
78464,80665,80058
78470,80044,79830
78475,79937,79397
78481,79640,79278
78486,79461,79141
78492,79471,79195
78498,79139,79249
78507,78869,79082
78509,78980,78672
78514,78300,78702
78520,78520,78963
78526,78457,78681
78531,78657,78427
78537,78721,78459
78542,78616,78027
78548,78170,78202
78553,78233,78181
78559,78534,77910
78564,78278,77765
78570,78285,78165
78576,78262,77923
78581,78046,77986
78587,78245,77687
78592,78034,77673
78598,77607,77627
78607,77486,77872
78609,77432,77886
78615,77524,77809
78620,77455,77505
78626,77608,77778
78632,77818,77264
78637,77064,77651
78643,77175,77403
78648,77270,77673
78654,77804,77406
78659,77681,77351
78665,77702,77246
78670,77619,77613
78676,77655,77005
78682,77466,77378
78687,77551,77129
78693,77402,77361
78699,77535,77523
78707,77734,77508
78710,77428,77822
78715,77475,77571
78721,77813,77275
78726,77827,77558
78732,77836,77838
78738,77800,77535
78743,77310,77593
78749,77591,77631
78754,77515,77425
78760,77817,77379
78765,77583,77623
78771,77733,77549
78777,77462,77611
78782,77617,77577
78788,77556,77755
78793,77574,77854
78799,77890,77728
78806,77880,77656
78810,77808,77596
78816,77998,77694
78821,77946,77504
78827,77911,77600
78833,78064,77718
78838,78146,77467
78844,78381,77794
78849,78297,77511
78855,78371,78282
78860,78163,78129
78866,77969,78265
78871,78198,78165
78877,77926,78090
78883,78233,78262
78888,78379,78464
78894,78166,78888
78900,78455,78641
78907,78714,78645
78911,78689,78405
78916,78574,78757
78922,78604,78635
78927,79202,78478
78933,79031,78523
78939,79344,78771
78944,79160,78783
78950,79497,79116
78955,79141,78850
78961,79194,79020
78966,79293,79350
78972,79267,79660
78978,79292,79337
78983,79135,79295
78989,79438,79431
78994,79555,79615
79000,79639,79740
79006,79750,79773
79011,80089,79789
79017,79652,79817
79022,80332,79868
79028,80402,80018
79033,80162,80065
79039,80248,80032
79045,80267,79985
79050,80553,80135
79056,80413,80285
79061,80388,80186
79067,80634,79868
79073,80844,80331
79078,80852,80559
79084,80945,80706
79089,80795,80690
79095,80681,81010
79100,80641,80781
79107,80827,81164
79112,81207,81230
79117,80876,81019
79123,81193,81053
79128,81290,81396
79134,81242,81417
79140,81630,81200
79145,81374,81369
79151,81553,81636
79156,81788,81507
79162,81839,81217
79167,82056,81331
79173,81934,81504
79179,82209,81706
79184,82077,81456
79190,82326,81416
79195,82248,82033
79201,81960,82328
79207,82216,82245
79212,82295,82221
79218,82300,82297
79223,82306,82475
79229,82396,82585
79234,82626,82655
79240,82578,82597
79246,82938,82797
79251,83042,82604
79257,82894,82878
79262,82889,82966
79268,83084,82777
79274,82718,82639
79279,82567,82808
79285,83060,82611
79290,82648,82795
79296,82434,81919
79307,82080,82345
79307,81842,81929
79313,81892,81981
79318,81686,81576
79324,81397,81369
79329,80678,80770
79335,80805,80594
79340,80494,80626
79346,80238,79977
79352,79987,79646
79357,79258,79444
79363,79542,78918
79368,79321,78827
79374,78856,78628
79380,78677,78746
79385,78223,78497
79391,78306,78053
79396,78157,77988
79406,77980,77968
79407,78034,77603
79413,78099,77945
79419,77797,77959
79424,77875,77708
79430,77294,77842
79435,77669,77501
79441,77317,77495
79447,77650,77332
79452,77480,77428
79458,77524,77426
79463,77398,77301
79469,77226,77270
79475,77455,77562
79480,77510,76715
79486,77184,77262
79491,77221,77205
79497,77172,77531
79507,77040,76812
79508,76542,76640
79514,76825,76702
79519,76869,77204
79525,76839,76880
79530,76755,76731
79536,76941,76891
79541,76605,77112
79547,77049,76430
79553,76497,76773
79558,77115,76850
79564,76947,76708
79569,77170,76608
79575,77136,76848
79581,77305,76736
79586,77137,76960
79592,77411,76851
79597,77236,76596
79607,77074,77035
79609,77166,76571
79614,76836,77237
79620,76629,76480
79625,76923,77287
79631,77097,76786
79636,76929,76890
79642,76770,76942
79648,77059,77377
79653,76837,76796
79659,77213,76788
79664,77151,77106
79670,77200,76192
79675,77144,76608
79681,77067,76823
79687,77090,76883
79692,77097,77088
79698,77040,77023
79707,77138,77104
79709,77306,76984
79714,77262,77283
79720,77269,77074
79726,77058,77415
79731,76933,77091
79737,77552,77261
79742,77359,77452
79748,77322,77482
79754,77484,77362
79759,77382,77868
79765,77364,77235
79770,78058,77502
79776,77763,77621
79781,77910,77529
79787,78004,77615
79793,77983,77522
79798,78073,77848
79807,78038,77846
79809,78326,78422
79815,78215,78286
79821,78154,78102
79826,78524,78551
79832,78601,78238
79837,78584,78954
79843,78567,78508
79849,78486,78765
79854,78487,78672
79860,78563,78655
79865,78822,78888
79871,79154,79022
79876,79220,78730
79882,79323,78884
79888,79112,78797
79893,79311,78981
79899,79357,79048
79906,79237,79186
79910,79338,79019
79915,79440,79462
79921,79244,79619
79927,79515,79228
79932,79328,79537
79938,79547,79890
79943,79699,79456
79949,79798,79844
79955,79678,79920
79960,79913,79978
79966,79699,80149
79971,80135,80282
79977,80122,80128
79982,80021,80129
79988,80363,79769
79994,80467,80202
79999,80771,80004
80007,80675,80098
80010,80577,80645
80016,80720,80505
80022,80429,80394
80027,80930,80707
80033,80883,80772
80038,80807,80711
80044,80814,81082
80050,81186,81734
80055,81171,81245
80061,81276,81124
80066,81367,81384
80072,81056,81476
80077,81023,81286
80083,81639,81213
80088,81646,81312
80094,81451,81474
80100,81511,81359
80107,81671,81535
80111,81826,81492
80116,82164,81812
80122,82026,81878
80128,81329,82080
80133,81733,81687
80139,81866,81928
80144,81853,81540
80150,81443,81652
80156,81758,81705
80161,81433,81352
80167,81479,80859
80172,80703,80563
80178,80727,80387
80183,80572,80284
80189,80436,79825
80195,79613,79836
80200,79431,79429
80207,78883,79092
80211,78839,78641
80217,78036,78232
80222,78100,78712
80228,78092,78065
80234,78008,77817
80239,77537,77506
80245,77787,77344
80250,77392,77420
80256,77359,76957
80262,77040,76775
80267,77346,77114
80273,76879,77002
80278,77051,76479
80284,76711,76676
80289,76860,76814
80295,76727,76328
80301,76766,76721
80307,76243,76272
80312,76467,76047
80317,76167,76208
80323,76211,76095
80329,76434,76025
80334,76109,76258
80340,75991,75884
80345,75818,75995
80351,76028,75814
80356,75965,76175
80362,76168,76127
80368,76427,75909
80373,76110,75832
80379,75784,75481
80384,76074,75663
80390,76276,75654
80396,76023,75561
80401,75783,75719
80407,75919,75779
80412,75752,75732
80418,75770,75980
80424,75562,76050
80429,75864,75928
80435,75806,75869
80440,75952,75837
80446,75848,76140
80451,76396,75990
80457,76131,75812
80463,76197,76003
80468,76322,75873
80474,76164,75895
80479,76241,76147
80485,76233,75932
80491,75740,76089
80496,76608,75834
80507,76294,76134
80507,76355,76437
80513,76085,76088
80518,76041,76367
80524,76069,76339
80530,76469,76506
80535,76334,76452
80541,76284,76232
80546,76347,76426
80552,76445,76405
80557,76518,76450
80563,76173,76145
80569,76306,76157
80574,76729,76064
80580,76891,76302
80585,76700,76166
80591,76831,76599
80597,76598,76184
80607,76812,76621
80608,76610,76421
80613,76747,76639
80619,76888,76529
80625,76830,77022
80630,77041,77194
80636,76815,76802
80641,76748,77037
80647,77328,77427
80652,77189,77425
80658,77584,77379
80664,77404,77319
80669,77535,77340
80675,77582,77418
80680,77655,77532
80686,77560,77487
80692,77726,77547
80697,78360,77819
80706,77861,77862
80708,77825,78104
80714,78012,77918
80719,78344,77720
80725,78034,77917
80730,78171,77889
80736,78337,78269
80742,78383,78429
80747,78518,78907
80753,78706,78461
80759,78330,78426
80764,78670,78624
80770,78809,78433
80775,78738,78806
80781,78877,78744
80786,78926,79027
80792,79122,78843
80797,79195,78531
80807,79217,78603
80809,79257,79262
80814,79343,79161
80820,79357,79488
80825,79564,79608
80831,79735,79534
80837,79408,79379
80842,79159,79426
80848,79609,79142
80853,79887,79798
80859,80081,79706
80865,80217,79845
80870,79838,79759
80876,80264,79909
80881,80366,80228
80887,80226,80105
80892,80400,80511
80898,80355,80212
80907,80514,80013
80909,80549,80172
80915,80469,80410
80920,80270,80502
80926,80822,80470
80931,80694,80457
80937,81101,80794
80943,80844,80882
80948,81112,81130
80954,81112,81302
80959,81132,81023
80965,81300,81444
80971,81548,81591
80976,81508,81194
80982,81189,81341
80987,82069,81734
80993,81589,81828
80999,81958,81694
81006,82065,81571
81010,82066,81971
81015,81896,81892
81021,82480,81874
81026,81887,82046
81032,81871,82048
81038,81705,81737
81043,82005,81431
81049,81887,81888
81054,81577,81569
81060,81878,81963
81065,81585,81179
81071,81030,81072
81077,80952,81295
81082,80866,80882
81088,80946,80577
81093,80183,80090
81099,79918,79832
81107,79598,79600
81110,79274,79390
81116,79093,78767
81121,78954,78271
81127,78436,78541
81133,78316,77790
81138,77881,77930
81144,77668,77535
81149,77636,77229
81155,77252,76943
81160,77257,77128
81166,76953,77141
81172,76800,77202
81177,76571,76539
81183,76720,76840
81188,76393,76734
81194,76831,76636
81200,76823,76547
81207,76514,76364
81211,76184,76272
81216,76452,76486
81222,76355,76276
81227,76242,76085
81233,76448,75993
81239,76418,76178
81244,75967,75907
81250,76200,76253
81255,76063,75991
81261,75811,75682
81266,75523,75691
81272,75807,75492
81278,75704,75676
81283,75548,75708
81289,75589,75916
81294,75801,75305
81300,75830,75771
81306,75747,75375
81311,75749,75511
81317,75623,75346
81322,75742,75590
81328,75495,75040
81333,75862,75508
81339,75460,75500
81345,75732,75747
81350,75731,76021
81356,75609,75877
81361,75710,75531
81367,75532,76170
81373,75859,75916
81378,76018,75758
81384,75703,75629
81389,75874,75904
81395,75871,75536
81400,75905,75746
81407,76030,75604
81412,75946,75647
81417,76070,75384
81423,76183,75842
81428,76022,75719
81434,76033,75725
81439,75964,75701
81445,76045,75789
81451,76086,75943
81456,75923,76015
81462,76280,76213
81468,76005,76379
81473,76025,75901
81479,75856,76572
81484,76017,76228
81490,76358,76061
81495,76144,76322
81501,76260,76189
81507,76562,76309
81512,76716,76281
81518,76801,76590
81523,76633,76496
81529,76918,76621
81534,76668,76530
81540,76877,76316
81546,77109,76602
81551,76665,76529
81557,77088,76725
81562,76935,76702
81568,77485,76874
81574,77224,77258
81579,77075,77464
81585,77187,77594
81590,77218,77548
81596,77567,77724
81606,77627,77784
81607,77366,77765
81613,77699,77498
81618,77530,77631
81624,77848,77547
81629,78021,77853
81635,78210,77763
81641,78132,77824
81646,78382,77800
81652,77837,78051
81657,78170,78450
81663,78261,78381
81668,78445,78452
81674,78544,78309
81680,78346,78417
81685,78431,78484
81691,78867,78916
81696,79059,78644
81707,78871,78976
81708,78928,78407
81713,78766,79159
81719,79116,78638
81724,79095,79142
81730,79547,79139
81735,79124,79156
81741,79413,79129
81747,79256,79456
81752,79556,79593
81758,79383,79595
81763,79414,79886
81769,79673,79852
81774,79863,79636
81780,79957,79737
81786,80270,79682
81791,80129,80009
81797,80464,79771
81807,80092,79962
81808,80101,79834
81814,80454,80089
81819,80572,80226
81825,80537,80669
81830,80745,80726
81836,80219,80760
81841,80783,80625
81847,80383,80614
81853,80893,80878
81858,80711,80797
81864,80838,80712
81869,80937,80960
81875,81175,80758
81881,81372,81372
81886,81406,80941
81892,81382,80985
81897,82089,81616
81906,81736,81217
81909,81755,81421
81914,81504,81668
81920,81501,81829
81925,81730,81787
81931,81771,81610
81936,81920,82188
81942,82170,82142
81948,81885,82161
81953,82228,82212
81959,82302,82275
81964,82267,82416
81970,82470,82484
81975,82589,82575
81981,82579,82565
81987,82699,82390
81992,82463,82281
81998,82442,82244
82007,82238,82526
82009,82299,82024
82015,81882,81847
82020,81350,81850
82026,81612,81302
82031,81406,81469
82037,81083,80753
82042,80756,80671
82048,80874,80601
82054,80196,79827
82059,79780,79622
82065,79534,79305
82070,79512,78955
82076,78798,78594
82082,78430,78316
82087,78242,78048
82093,78030,78160
82098,77703,77831
82107,77510,77762
82109,77557,77727
82115,77109,77501
82121,77605,77137
82126,76909,77258
82132,77194,77354
82137,77412,76995
82143,77213,77122
82148,76957,76972
82154,77151,76937
82160,77128,76769
82165,77034,76547
82171,76734,76928
82176,76903,76626
82182,76777,76699
82188,76996,76726
82193,76626,76212
82199,76656,76296
82207,76291,76445
82210,76194,76284
82215,76118,76302
82221,76227,76088
82227,75982,76236
82232,75972,76344
82238,75687,75906
82243,76074,76027
82249,75949,75933
82255,75724,76043
82260,76521,76109
82266,76478,75970
82271,76365,76272
82277,76234,76037
82282,76226,76132
82288,76614,76154
82294,76284,75738
82299,76121,76046
82307,76119,76431
82310,76239,76204
82316,76519,76198
82322,76345,76349
82327,75898,76453
82333,76035,76385
82338,76396,76317
82344,76269,76343
82350,76319,76429
82355,76216,76411
82361,76220,76326
82366,76312,76241
82372,76576,75929
82377,76622,76371
82383,76702,76064
82388,76412,76248
82394,76652,75914
82400,76183,76307
82407,76385,76135
82411,76357,76458
82416,76300,76208
82422,76244,76529
82428,76389,76613
82433,76620,76497
82439,76378,76489
82444,76732,76241
82450,76489,76372
82456,76440,76865
82461,76667,76672
82467,76592,76627
82472,77079,76735
82478,76510,76630
82483,77038,76591
82489,77406,76717
82495,77240,76958
82500,77560,77082
82507,77337,76712
82511,77332,76704
82517,77460,77224
82522,77454,77442
82528,77182,77142
82534,77330,77410
82539,77492,77359
82545,77594,77293
82550,77100,77394
82556,77632,77869
82562,77632,77403
82567,77805,78261
82573,77860,77989
82578,77835,78192
82584,78110,77996
82589,78209,77884
82595,78008,77945
82601,78184,77776
82607,78303,77988
82612,78443,78368
82617,78461,77836
82623,78524,78232
82629,78416,78216
82634,78618,78401
82640,78574,78450
82645,78704,78511
82651,78322,78793
82656,78832,78996
82662,78756,79147
82668,79167,78610
82673,78947,79022
82679,79049,78963
82684,78958,79324
82690,79284,78854
82696,79212,79317
82701,79240,79218
82707,79276,79140
82712,79553,79273
82718,79296,78689
82724,79616,79214
82729,79599,79570
82735,79356,79503
82740,80123,79677
82746,79981,79674
82751,79628,79842
82757,79914,79769
82763,79808,79891
82768,79806,80046
82774,79992,80366
82779,80182,80208
82785,79932,80332
82791,80185,80127
82796,80424,80525
82807,80727,80568
82807,80402,80510
82813,80693,80409
82818,80550,80425
82824,80591,80866
82830,80702,80797
82835,80937,81107
82841,81409,80590
82846,81408,81054
82852,81408,80905
82857,81543,81015
82863,81006,81357
82869,81472,81237
82874,81014,81121
82880,80962,81393
82885,81432,81132
82891,81000,81029
82897,81103,80797
82907,80914,80553
82908,80434,80388
82913,80548,80512
82919,80205,80372
82924,79870,79819
82930,79823,79437
82936,79320,79206
82941,79131,79049
82947,78617,78445
82952,78401,78149
82958,77904,77316
82964,77624,77643
82969,77579,77113
82975,77377,76932
82980,77158,76720
82986,76986,76617
82991,76740,76449
82997,76536,76125
83006,76137,76062
83008,76066,76052
83014,76185,76142
83019,76093,75770
83025,76008,76145
83030,76036,75767
83036,75608,75922
83042,75769,75934
83047,75522,75775
83053,75317,75859
83059,75557,75611
83064,75570,75480
83070,75552,75785
83075,75680,75390
83081,75366,75568
83086,75609,75152
83092,75515,75191
83097,75505,75416
83107,75144,74924
83109,75302,75091
83114,74938,74958
83120,75341,74707
83125,75211,75180
83131,75616,75139
83137,75087,75208
83142,75095,74853
83148,75180,74976
83153,75431,74907
83159,75139,74918
83165,74955,75220
83170,75055,74721
83176,75126,75251
83181,74877,75211
83187,75255,75250
83192,75405,75137
83198,74956,74904
83207,75370,75402
83209,75161,75550
83215,75342,75500
83220,75302,75521
83226,75459,75260
83231,75389,75492
83237,75513,75107
83243,75257,75042
83248,75162,74938
83254,75462,75352
83259,75537,75149
83265,75308,75589
83271,75458,74800
83276,75502,75278
83282,75378,75155
83287,75259,75133
83293,75318,75067
83299,75163,74938
83307,75193,75321
83310,75426,75310
83315,75694,75242
83321,75547,75341
83326,75557,75457
83332,75547,75454
83338,75502,75817
83343,75442,75654
83349,75978,75889
83354,75761,75610
83360,75859,75806
83365,75931,75978
83371,76328,76096
83377,76158,75748
83382,76079,75838
83388,75968,75747
83393,76407,76105
83399,76231,76141
83407,76593,76268
83410,76237,76210
83416,76268,76282
83421,76254,76631
83427,76470,76680
83433,76665,76753
83438,76579,77121
83444,76858,76877
83449,76678,77136
83455,77158,76857
83460,77314,77210
83466,77170,77078
83471,77305,77102
83477,77821,77337
83483,77467,77115
83488,77350,77161
83494,77458,77482
83500,77836,77353
83507,77721,77409
83511,77998,77686
83516,77799,77788
83522,77919,77925
83527,77716,77772
83533,77851,78069
83539,77731,77823
83544,78066,78281
83550,78196,78473
83555,78478,78245
83561,78654,78278
83566,78562,78384
83572,78303,78480
83578,78653,78687
83583,78566,78527
83589,79014,78494
83594,78714,78619
83600,79042,78157
83606,78898,78874
83611,78643,78734
83617,79198,78978
83622,79394,79147
83628,78845,79117
83633,79115,79175
83639,79430,79072
83645,79262,79143
83650,79505,79381
83656,79335,79491
83661,79301,79878
83667,79887,79450
83673,79853,79860
83678,80139,80169
83684,80023,79793
83689,80134,79904
83695,79998,79958
83700,80262,80041
83707,80141,80197
83712,80468,80155
83717,80291,79973
83723,80676,80030
83728,80547,80651
83734,81109,80292
83739,80629,80487
83745,80639,80892
83751,80836,80793
83756,80760,81056
83762,81064,81008
83768,80687,80972
83773,80665,80792
83779,80899,80991
83784,80795,80657
83790,80906,80564
83795,80514,80499
83801,80436,80202
83807,79937,79863
83812,79806,79142
83818,79541,78978
83823,78964,79135
83829,78697,78374
83834,78384,78169
83840,78148,77684
83846,77639,77382
83851,77527,77560
83857,76746,76708
83862,76299,76770
83868,76266,76139
83874,76094,76460
83879,75750,75821
83885,75764,75603
83890,75273,75344
83896,75265,75175
83906,75257,75180
83907,75374,75129
83912,75085,74736
83918,74696,74541
83924,74726,74596
83929,74894,74649
83935,74735,74849
83941,74145,74740
83946,74378,74607
83952,74470,74437
83957,74522,74406
83963,74675,74481
83968,74507,73847
83974,74212,74172
83979,74281,74271
83985,74040,74087
83991,74394,74304
83996,73951,73745
84007,73818,73960
84007,73997,74008
84013,73896,74061
84019,74054,74048
84024,74027,73813
84030,73680,74067
84035,73810,73712
84041,74029,73579
84047,74013,73866
84052,73879,73878
84058,73803,73434
84063,73847,73299
84069,74056,73446
84074,74054,73520
84080,73989,73763
84086,73754,74012
84091,73959,73796
84097,74275,74053
84107,74070,74078
84108,74537,74217
84114,73811,74322
84119,74234,74216
84125,74132,74052
84130,74289,74002
84136,74147,74310
84141,74188,73858
84147,74432,73965
84153,74529,73948
84158,73990,74359
84164,74191,74057
84169,74121,74057
84175,74208,74132
84181,74241,74075
84186,74274,74271
84192,74564,74393
84197,74316,74272
84206,74168,74102
84209,74508,74427
84214,74381,74645
84220,74543,74589
84225,74828,74663
84231,74765,74610
84236,74741,74287
84242,74868,74467
84248,74674,74431
84253,74874,74678
84259,75309,74723
84264,74979,74965
84270,75125,74896
84276,75095,74879
84281,75401,74926
84287,75036,75104
84292,75270,75182
84298,75395,75186
84307,75399,75510
84309,75437,75408
84315,75630,75402
84320,75473,75685
84326,75898,75372
84331,76098,75487
84337,75651,75531
84342,75844,76077
84348,76226,75870
84354,76176,75603
84359,76159,76066
84365,76071,75964
84370,76279,76254
84376,76329,75855
84382,76385,76019
84387,76327,76535
84393,76346,76642
84398,76655,76866
84407,76538,76505
84409,76644,76327
84415,76581,76525
84421,76815,77068
84426,77098,76719
84432,76623,76899
84437,76953,76875
84443,77138,77265
84449,77047,76911
84454,77146,77173
84460,77103,77083
84465,77118,77066
84471,77487,77477
84476,77583,77220
84482,77339,77342
84488,77642,77563
84493,77854,77242
84499,78002,77506
84506,77902,77513
84510,77908,77763
84516,77678,78021
84521,77805,78053
84527,77925,78186
84532,78109,78305
84538,77925,78224
84543,78130,78301
84549,78039,78431
84555,78394,78205
84560,78661,78170
84566,78423,78588
84571,78602,78420
84577,78928,78899
84582,79180,79057
84588,79138,78592
84594,78973,78846
84599,79164,79334
84607,79058,79182
84610,79262,78955
84616,79520,79494
84622,79309,79173
84627,79420,79544
84633,79766,79465
84638,79316,79262
84644,79763,79883
84650,79434,79632
84655,79596,79520
84661,79647,79954
84666,79647,79610
84672,79532,79692
84677,79323,79326
84683,79070,79302
84688,79084,78837
84694,79086,78609
84700,78683,78320
84707,78319,78418
84711,78210,77756
84716,78072,77294
84722,77694,76979
84728,77062,76949
84733,77006,76722
84739,76166,76862
84744,76195,76153
84750,75739,75846
84756,75534,75682
84761,75462,75604
84767,75142,75183
84772,75046,75010
84778,75055,74932
84783,75162,74688
84789,74950,74632
84795,74785,74813
84800,74930,74274
84807,74449,74281
84811,74570,74085
84817,74798,73981
84822,74354,74357
84828,74630,74196
84834,74052,74168
84839,74159,73951
84845,74080,73947
84850,74210,74100
84856,73757,74148
84862,73770,73949
84867,73756,74152
84873,74035,74161
84878,73329,73531
84884,73702,73699
84890,73931,73748
84895,73817,73721
84901,73891,73531
84907,73650,73631
84912,73768,73150
84917,73452,73673
84923,73502,73581
84929,74069,73037
84934,73676,73490
84940,73525,73454
84945,73713,73640
84951,73547,73650
84956,74051,73614
84962,73810,73931
84968,73650,73643
84973,73773,73870
84979,74164,73976
84985,73873,73930
84990,74147,73418
84996,73946,73880
85001,73917,74082
85007,73714,73953
85012,73982,73505
85018,74070,73920
85024,74238,74165
85029,73696,74125
85035,74064,74012
85040,74048,73904
85046,73920,73938
85051,73812,74114
85057,74032,74258
85063,74036,74227
85068,74320,73745
85074,74299,73858
85079,74345,74285
85085,74190,74087
85091,74620,74086
85096,74602,74163
85106,74296,74225
85107,74277,74316
85113,74552,74284
85118,74438,74222
85124,74578,74373
85130,74363,74648
85135,74779,74867
85141,74841,74927
85146,74839,75021
85152,75018,74992
85158,74955,74988
85163,75173,74998
85169,75718,74993
85174,75400,75048
85180,75324,75099
85185,75623,75480
85191,75719,75205
85196,75797,75544
85207,76126,75414
85208,75557,75523
85213,75407,75820
85219,75859,75401
85224,75990,75508
85230,75592,75970
85236,75740,76393
85241,75987,75849
85247,76022,76156
85252,76116,75794
85258,76253,76274
85264,76363,76375
85269,76514,76304
85275,76405,76367
85280,76496,76467
85286,76787,76238
85291,76811,76593
85297,77003,76266
85307,76696,76633
85308,76884,76727
85314,76868,76855
85319,77043,76966
85325,77216,77131
85330,77095,77219
85336,76921,77058
85342,77315,77628
85347,77151,77399
85353,77371,77523
85358,77617,77743
85364,77688,77788
85370,77710,77817
85375,77931,77752
85381,77750,77471
85386,78032,77718
85392,77987,78212
85398,78105,78116
85407,78032,78125
85409,78427,78241
85414,78637,78090
85420,78375,78567
85425,78996,78234
85431,78626,78430
85437,78946,78714
85442,78780,78502
85448,78873,78750
85453,79082,78842
85459,79170,78890
85464,79163,78931
85470,79002,79085
85476,79043,79399
85481,79272,79470
85487,79160,79428
85493,79531,79458
85498,79781,79884
85507,79942,79809
85509,79915,79906
85515,79984,79684
85520,80185,80092
85526,80180,79810
85532,80235,79900
85537,80283,79743
85543,80014,79968
85548,80384,79910
85554,80329,79826
85559,79960,79625
85565,79672,79622
85571,79533,79458
85576,79203,79417
85582,79172,79128
85587,78968,78682
85593,78622,78687
85599,78455,78031
85607,78172,77966
85610,77819,77730
85615,77417,77611
85621,77200,77442
85626,76891,77181
85632,76329,76708
85638,76561,76488
85643,76478,75917
85649,76346,76056
85654,75986,75814
85660,75584,75880
85665,75503,75694
85671,75704,74938
85677,75299,75311
85682,75190,75089
85688,75138,75202
85693,75317,75023
85699,75311,74913
85706,74988,74692
85710,74973,74922
85716,74872,74988
85721,75276,74959
85727,75100,74954
85733,74725,74685
85738,75218,75047
85744,74852,74864
85749,74988,74778
85755,74813,75271
85760,74695,74874
85766,74767,75018
85772,74843,74448
85777,74695,75014
85783,75005,74826
85788,74646,74584
85794,74850,74468
85799,74757,74708
85807,74682,74739
85811,74885,74750
85816,74845,74643
85822,74603,74520
85827,74769,74447
85833,74809,74766
85839,74650,74299
85844,75223,75007
85850,74709,75085
85855,75129,74779
85861,75215,75051
85867,75081,75152
85872,75002,75336
85878,75191,75285
85883,75168,75298
85889,74840,74786
85894,75149,74763
85900,75166,75249
85907,74981,75315
85911,75660,75130
85917,75499,75278
85922,75544,75162
85928,75385,74991
85933,75641,75150
85939,75284,75440
85945,75423,75499
85950,75607,75556
85956,75708,75417
85961,75665,75593
85967,76030,75622
85973,75846,75865
85978,75542,75865
85984,75725,75460
85989,76029,75892
85995,75674,75854
86000,76004,76008
86007,75994,76112
86012,75779,76256
86017,76148,76209
86023,76281,76342
86028,76264,76667
86034,76324,76449
86039,76482,76052
86045,76608,76314
86051,76696,76422
86056,77096,76445
86062,76619,76596
86068,76882,76516
86073,76888,76355
86079,77040,76771
86084,76906,76887
86090,77182,77017
86095,77331,77098
86101,77289,76627
86107,77258,77412
86112,77291,77293
86118,77025,77174
86123,77481,77210
86129,77482,77638
86134,77622,77691
86140,77658,77573
86146,77817,77693
86151,77778,77635
86157,78168,77517
86162,77970,77794
86168,77906,77873
86174,78098,77988
86179,78527,77462
86185,78141,77796
86190,78181,78134
86196,78246,78159
86206,78228,77995
86207,78135,78401
86213,78382,78265
86218,78368,78657
86224,78327,78925
86229,78636,78404
86235,78579,78762
86241,78538,78746
86246,78498,78602
86252,79113,78656
86257,78980,78608
86263,79006,78878
86268,79074,79124
86274,79370,78745
86280,79142,78570
86285,79437,79114
86291,79279,79168
86296,79304,79224
86307,79332,79234
86307,79569,79635
86313,79577,79554
86319,79626,79932
86324,79647,79629
86330,79579,79722
86335,79811,79808
86341,80031,79918
86347,79818,79974
86352,79831,79791
86358,80135,79936
86363,80160,79746
86369,80082,79901
86374,80267,79989
86380,80355,80132
86386,80706,80041
86391,80907,80302
86397,80638,80601
86407,80615,80810
86408,80573,80725
86414,80580,80669
86419,80519,80749
86425,80908,80788
86430,80745,80826
86436,80749,81080
86441,81205,80861
86447,80661,80855
86453,80990,80802
86458,80494,80775
86464,80637,80406
86469,80448,80155
86475,80088,79930
86481,80192,79921
86486,79766,79460
86492,79709,79434
86497,79263,78578
86507,78673,78831
86509,78781,78811
86514,78467,78667
86520,78360,78495
86525,78066,77932
86531,77681,77922
86536,77527,77742
86542,77595,77663
86548,77514,77338
86553,77618,77275
86559,77305,76964
86564,77145,76915
86570,77234,76575
86576,77003,76759
86581,76691,76904
86587,76826,76648
86592,76534,76531
86598,77168,76752
86607,76703,76701
86609,76910,76560
86615,76506,76778
86620,76378,77123
86626,76650,76808
86631,76843,76790
86637,76759,76751
86642,76846,76576
86648,76551,76558
86654,76748,76227
86659,76642,76562
86665,76632,76364
86670,76635,76493
86676,76482,76698
86682,76735,76730
86687,76764,76401
86693,76743,76708
86698,76406,76659
86707,76797,76665
86709,76882,76471
86715,76721,76241
86721,76813,76736
86726,77017,76623
86732,77152,76582
86737,76669,76670
86743,76829,76522
86749,77156,76940
86754,76869,76685
86760,76785,76763
86765,76808,76866
86771,76330,76835
86776,76479,76925
86782,76624,76798
86788,76557,76511
86793,76772,76816
86799,76575,76380
86807,76374,76542
86810,76769,76565
86816,76373,76378
86821,76734,76385
86827,76549,76288
86832,76145,76554
86838,76490,75903
86844,76297,76121
86849,76215,76002
86855,76305,76058
86860,76354,75959
86866,76110,76108
86871,76247,76676
86877,76106,76384
86882,76115,76292
86888,75801,76426
86894,75974,75982
86899,76099,76441
86906,76282,75714
86910,76429,76261
86916,76286,76420
86922,76714,76368
86927,76301,76072
86933,76519,75991
86938,76808,76409
86944,76482,76714
86950,76642,76537
86955,76615,76236
86961,76700,76718
86966,76717,76456
86972,76789,76944
86977,76858,76985
86983,76947,77021
86989,77462,76903
86994,77157,76858
87000,77333,76972
87007,76914,77212
87011,77167,77152
87017,76892,77028
87022,77226,76691
87028,77114,77217
87033,76949,77253
87039,76875,76715
87044,77098,77149
87050,77165,77030
87056,77475,77239
87061,77165,77585
87067,77540,77200
87072,77512,77383
87078,77853,77547
87083,77754,77607
87089,77789,77161
87095,77895,77514
87100,77965,77586
87107,78007,77968
87111,77976,78186
87117,78027,78034
87123,78135,77894
87128,78133,77730
87134,78223,77690
87139,78172,78427
87145,78241,78314
87150,78362,78149
87156,78360,78357
87162,78521,78584
87167,78525,78360
87173,78577,78791
87178,78488,78464
87184,78797,78855
87190,78838,78781
87195,78929,78591
87201,78981,78976
87206,79322,78843
87212,79418,78865
87218,79184,79051
87223,79440,79153
87229,79814,79680
87234,79798,79382
87240,79836,79415
87245,79549,79824
87251,80167,79866
87257,79816,80100
87262,80460,80001
87268,80194,80334
87273,80647,80110
87279,80387,80340
87285,80475,80483
87290,80997,79975
87296,80972,80385
87301,80707,80583
87307,80772,80317
87312,80564,80294
87318,80314,80280
87324,80346,80356
87329,80014,80044
87335,80335,80368
87340,79810,80059
87346,79716,79587
87352,79199,79649
87357,79249,79383
87363,78989,78946
87368,78668,78613
87374,78706,78154
87379,78491,78391
87385,78420,77696
87390,77841,77699
87396,77696,77478
87406,77425,77210
87407,77158,76707
87413,76977,76942
87418,76815,76709
87424,76811,76814
87430,76588,76709
87435,76644,76764
87441,76569,76518
87447,76790,76101
87452,76333,76757
87458,76505,76439
87463,76233,76268
87469,76711,76514
87474,76659,76369
87480,76424,76408
87485,76758,76349
87491,76830,76578
87497,76587,76628
87507,76477,76557
87508,76849,77073
87513,76900,77108
87519,76862,76844
87524,76699,77231
87530,76906,76932
87536,77028,77043
87541,77170,76915
87547,77339,77421
87552,77208,77325
87558,77552,77072
87564,77531,77247
87569,77346,76769
87575,77787,77623
87580,77489,77565
87586,77829,77395
87591,77682,76974
87597,77446,77515
87607,77732,77718
87608,77469,77771
87614,77717,77329
87619,78184,77922
87625,77938,77988
87631,77816,77908
87636,77989,77951
87642,77562,77784
87647,77917,77922
87653,77995,78225
87658,78176,77905
87664,78128,78084
87670,78320,77890
87675,78618,77872
87681,78391,78023
87686,78553,78190
87692,78365,77927
87698,78264,78152
87707,78213,78069
87709,78164,78587
87714,78493,78308
87720,78324,78317
87726,78365,78694
87731,78645,78402
87737,78425,78580
87742,78742,78786
87748,78714,78909
87753,78914,79327
87759,78571,78507
87764,79008,78618
87770,78874,78679
87776,79371,78632
87781,79412,78831
87787,79253,78910
87793,79042,79006
87798,79482,79033
87807,79173,79362
87809,79103,79296
87815,79268,79491
87820,79281,79452
87826,79801,79473
87832,79367,79263
87837,79648,79652
87843,79765,79818
87848,79662,79385
87854,79952,79525
87859,79834,79955
87865,79966,79523
87871,79788,79927
87876,80136,79940
87882,80483,79968
87887,80223,79859
87893,80377,80409
87899,80439,80190
87907,80484,80436
87910,80493,80617
87915,80653,80672
87921,80495,80896
87926,81029,81021
87932,81013,81084
87938,80980,81045
87943,80883,80892
87949,81417,80993
87954,81505,81208
87960,81661,81284
87966,81494,81616
87971,81527,81436
87977,81584,81719
87982,82012,81580
87988,81870,81609
87993,82038,81606
87999,81371,81533
88006,82443,82073
88010,82184,81760
88016,82352,81526
88021,82163,82009
88027,82545,82171
88033,82463,82776
88038,82449,82507
88044,82232,82451
88049,82367,82407
88055,82885,82941
88060,82586,82904
88066,82661,82867
88072,83232,82631
88077,82820,82964
88083,83132,82697
88088,83296,83142
88094,83367,83295
88100,83815,82738
88107,83023,83167
88111,83307,83223
88116,83556,83135
88122,83573,83421
88127,83867,83535
88133,83431,83984
88139,83998,83690
88144,83827,83860
88150,83429,83659
88155,83863,83824
88161,83699,83866
88167,83704,83551
88172,83834,83707
88178,83612,83429
88183,83419,83174
88189,82852,83076
88194,82464,82415
88200,82499,82513
88207,82048,82291
88211,81920,81681
88217,81595,81330
88222,80867,81241
88228,80881,80650
88233,80527,80359
88239,80563,80447
88245,79964,79915
88250,80535,79601
88256,79804,79353
88261,79402,79585
88267,79412,79105
88273,79235,78897
88278,79279,78812
88284,78749,78981
88289,78982,78558
88295,78616,78654
88300,78709,78630
88307,78748,78665
88312,78317,78401
88317,78400,78581
88323,78491,78398
88328,78514,78644
88334,78352,78490
88340,77919,78601
88345,78716,78243
88351,78764,78320
88356,78561,78211
88362,78740,78328
88367,78622,78632
88373,78242,78401
88379,78882,78180
88384,78589,78184
88390,78725,77743
88395,78511,78269
88401,78531,78358
88407,78319,78471
88412,78080,78239
88418,78190,78557
88423,78572,78453
88429,78012,78173
88435,78005,78034
88440,77935,78276
88446,78310,78032
88451,77779,78395
88457,77848,78077
88462,78089,77904
88468,78301,77929
88473,78187,77582
88479,78156,77805
88485,77564,77669
88490,77865,77406
88496,77796,77651
88507,77927,77640
88507,77710,77588
88513,77379,77533
88518,77544,77336
88524,77439,77711
88529,77925,78199
88535,77902,77648
88541,77865,77799
88546,77908,77965
88552,77875,78142
88557,77735,77722
88563,77806,77836
88568,77800,77662
88574,77765,77454
88580,77335,77862
88585,77875,77593
88591,77846,77441
88596,77935,77776
88607,77756,77758
88607,77958,77726
88613,77949,77725
88619,77997,77780
88624,78118,77906
88630,77941,77938
88635,78062,78207
88641,78462,78084
88647,78467,78280
88652,78756,78443
88658,78210,78521
88663,78452,78095
88669,78522,78839
88674,78943,78622
88680,78554,78754
88686,79030,78803
88691,79272,78596
88697,78990,78750
88707,79268,78804
88708,78949,79089
88714,79432,78938
88719,79553,79535
88725,79692,79525
88730,79410,79679
88736,79475,79519
88741,79606,79779
88747,79814,79632
88753,79956,79569
88758,79758,80118
88764,79911,80404
88769,80279,80086
88775,80438,80682
88781,80521,80958
88786,80709,80736
88792,81267,80975
88797,80804,80918
88807,80922,80839
88809,80979,81223
88814,81321,81004
88820,81698,80999
88825,81397,81368
88831,81599,81100
88836,81332,81164
88842,81969,81661
88848,81541,81439
88853,81532,81283
88859,81581,81279
88864,81764,81565
88870,81471,81642
88876,81697,81876
88881,81748,81685
88887,81944,81893
88892,82083,81941
88898,81973,82198
88906,81991,82084
88909,82030,82155
88915,82106,82029
88920,82404,82016
88926,82233,82318
88931,82454,82141
88937,82323,82250
88942,82444,82203
88948,82532,82332
88954,82542,82467
88959,81864,81949
88965,82078,82048
88970,81886,82021
88976,81757,81935
88982,81885,81511
88987,81675,81749
88993,81324,81425
88998,81284,80984
89007,80854,80889
89009,80819,81209
89015,80840,80282
89021,80312,80103
89026,80039,80157
89032,79943,79592
89037,79669,79215
89043,79275,79064
89049,79004,78732
89054,78901,78676
89060,78873,78632
89065,78404,78230
89071,77953,78287
89076,77863,78028
89082,77920,77959
89088,77578,77814
89093,77902,77588
89099,77750,77629
89107,77702,77825
89110,78136,77395
89115,77392,77638
89121,77385,77468
89127,77835,76934
89132,77723,77300
89138,77228,77085
89143,77197,77044
89149,77452,77058
89155,77389,76901
89160,77589,76643
89166,77241,76878
89171,77355,77274
89177,76965,77030
89182,77279,77109
89188,76922,77276
89194,76840,77171
89199,77403,77188
89207,77008,76917
89210,76980,76852
89216,76698,76958
89222,76965,77096
89227,77008,77034
89233,77116,76843
89238,77054,76748
89244,77220,77037
89250,76933,76689
89255,77203,76866
89261,77109,76671
89266,77247,76463
89272,77163,76988
89277,76888,76796
89283,76774,76747
89289,76925,76796
89294,76960,76918
89300,76677,77226
89307,76908,76801
89311,76767,76782
89316,76562,76770
89322,77051,77047
89328,76842,77011
89333,77089,77062
89339,77094,76772
89344,76972,76701
89350,77091,76843
89356,77028,76629
89361,77008,76818
89367,77140,76797
89372,77111,76669
89378,77318,76641
89383,77123,76828
89389,77247,76553
89395,77118,76886
89400,77011,77184
89407,76814,77209
89411,76803,77194
89417,76818,77247
89423,76967,76972
89428,77356,77079
89434,77253,77238
89439,77261,77489
89445,77246,77449
89450,77424,77333
89456,77565,76998
89462,77813,77247
89467,77550,77342
89473,77466,77575
89478,77314,77626
89484,77393,77443
89490,77492,77458
89495,77888,77460
89501,77768,77784
89507,77941,77655
89512,78028,77896
89518,78039,77918
89523,77908,78082
89529,77938,78138
89534,78153,78091
89540,78190,78146
89545,78138,78580
89551,78201,78303
89557,78335,78813
89562,78451,78702
89568,78720,78593
89573,79080,78548
89579,78926,78746
89584,78804,78957
89590,79020,79192
89596,79058,78964
89601,79168,79166
89607,79515,78952
89612,79383,79169
89618,79426,79083
89623,79340,79290
89629,79729,79457
89635,79618,79643
89640,79735,79624
89646,79825,79670
89651,79983,79621
89657,79761,79815
89663,80073,80059
89668,79808,80108
89674,80380,80090
89679,80394,80350
89685,80307,80261
89690,80492,80446
89696,80273,80716
89706,80535,80371
89707,80558,80443
89713,80752,80186
89718,80804,80611
89724,80724,80766
89730,80702,80125
89735,80749,80692
89741,80822,80812
89746,81047,80828
89752,80393,81072
89758,80606,80488
89763,80200,80609
89769,80648,80384
89774,80405,80179
89780,79843,79796
89785,79746,79850
89791,79434,79854
89796,79407,79319
89807,79209,78895
89808,79139,78889
89813,78745,78528
89819,78536,78440
89824,78362,77849
89830,78462,77809
89836,78210,77784
89841,77662,77465
89847,77567,77488
89852,77255,77079
89858,77471,77148
89864,77045,77473
89869,76955,77022
89875,76703,76846
89880,76588,76892
89886,76840,77020
89891,76551,76889
89897,76732,76783
89907,76676,76722
89908,76888,77034
89914,77258,76697
89919,76907,76474
89925,77050,76594
89931,77028,76435
89936,76758,76886
89942,77037,76583
89947,77218,76764
89953,77228,77077
89958,77188,76755
89964,77170,76859
89970,77128,76836
89975,77298,77451
89981,76951,77712
89986,77633,77333
89992,77294,77241
89998,77459,77600
90007,77596,77945
90009,77680,77393
90014,77562,77512
90020,78106,77910
90025,77910,77619
90031,77996,77768
90037,77784,77751
90042,78552,77914
90048,77898,77736
90053,77933,77516
90059,78068,77889
90065,78199,78210
90070,77577,78087
90076,78251,77990
90081,77809,78135
90087,78390,77826
90093,78216,77910
90098,78427,78227
90107,78460,78135
90109,78270,78273
90115,78239,78080
90120,78444,78085
90126,78166,78202
90132,78308,78059
90137,78312,78260
90143,78217,78152
90148,78118,78556
90154,78315,78326
90159,78274,78148
90165,78624,78274
90171,78209,78482
90176,78523,78369
90182,78507,78533
90187,78453,78492
90193,78458,78554
90199,78805,78410
90207,78554,78486
90210,79203,78641
90215,79032,78677
90221,79265,78703
90226,78761,79250
90232,79056,78861
90238,79156,79202
90243,79216,78975
90249,78858,79191
90254,79217,79068
90260,78907,79290
90265,79307,79586
90271,79603,79678
90277,79715,79789
90282,79625,79806
90288,79798,79599
90293,79764,79549
90299,80328,79992
90307,80071,79930
90310,80196,79623
90316,80251,79811
90321,80393,80254
90327,80664,80463
90333,80711,80337
90338,80546,80977
90344,80695,80897
90349,80462,80875
90355,80890,80465
90360,80783,80903
90366,80992,80801
90371,81187,80883
90377,81414,81293
90383,81446,81121
90388,81626,81117
90394,81525,81475
90400,81709,81411
90407,81651,81726
90411,81701,81548
90416,81624,81753
90422,81536,81820
90427,81806,81846
90433,82034,82010
90439,81884,81917
90444,81917,81944
90450,82130,82292
90455,82074,82212
90461,82330,82118
90466,81955,81911
90472,82308,81547
90478,81626,81488
90483,81823,81234
90489,81593,81314
90494,81255,81619
90500,80911,80510
90507,81128,80758
90511,80685,80532
90517,80678,80442
90522,80571,80293
90528,80043,80187
90533,79888,80027
90539,80111,79697
90545,79891,79391
90550,79718,79852
90556,79853,79465
90561,79708,79594
90567,79431,79358
90573,79528,79055
90578,79570,79487
90584,79291,79303
90589,79194,78938
90595,79345,79122
90600,79227,79303
90606,79113,79469
90612,79277,79360
90617,79061,79366
90623,79625,79070
90628,79271,79308
90634,79327,79381
90640,79151,79711
90645,79174,79368
90651,79436,79270
90656,79625,79338
90662,79340,79268
90668,79766,79413
90673,79712,79470
90679,79731,79428
90684,79705,79422
90690,79315,79512
90695,79773,79652
90701,79905,79546
90707,79662,79719
90712,79572,79770
90718,79660,79893
90723,80084,79742
90729,79909,79884
90735,79709,80046
90740,80142,80008
90746,79996,80028
90751,79884,79894
90757,80218,79984
90762,80066,80198
90768,80206,79462
90773,80068,79537
90779,80133,79805
90785,80070,80192
90790,79925,79498
90796,80100,79730
90806,80090,79707
90807,80252,79801
90813,80030,79691
90818,79810,79722
90824,79556,79852
90829,79936,80056
90835,80122,79876
90841,80066,80135
90846,80034,80128
90852,80300,80065
90857,79813,80330
90863,80104,80044
90868,80262,80288
90874,80553,80157
90880,80260,79749
90885,80350,80206
90891,80383,80017
90896,80441,79840
90907,80509,80518
90907,80864,80417
90913,80440,80408
90919,80654,80501
90924,80632,80507
90930,81081,80801
90935,80619,80494
90941,80496,80472
90947,80714,80834
90952,80791,80428
90958,81120,80892
90963,81224,80852
90969,81036,80958
90974,80986,80916
90980,81385,81382
90986,81288,81014
90991,81567,80934
90997,81439,81225
91007,81219,81259
91008,81482,81183
91014,81275,81440
91019,81739,81638
91025,81724,81779
91030,82259,81638
91036,82080,81759
91041,82065,81980
91047,82097,81835
91053,82006,81711
91058,82033,82023
91064,82198,81582
91069,82267,81888
91075,82325,82016
91081,82055,82154
91086,82101,82119
91092,82049,81946
91097,81796,81955
91107,81803,81511
91109,82068,81641
91114,81698,81921
91120,81307,81474
91125,81164,81174
91131,81095,81040
91136,80973,80442
91142,80744,80402
91148,80577,80120
91153,80297,79949
91159,79976,79615
91164,79474,79322
91170,79094,78983
91176,79314,79383
91181,78866,79178
91187,78815,79044
91192,78905,79122
91198,78536,78441
91207,78470,78618
91209,78166,78485
91215,78488,78168
91220,78240,77938
91226,77951,78096
91231,78074,77980
91237,77997,77786
91242,78421,78116
91248,77997,78137
91254,78137,77956
91259,78070,77712
91265,78159,77975
91270,78332,77797
91276,78287,77981
91282,77826,77902
91287,78118,77591
91293,78349,77967
91298,78028,77804
91307,77690,78242
91309,78023,78049
91315,78025,77911
91321,78081,78323
91326,78147,78104
91332,78011,77980
91337,77981,78144
91343,78527,77547
91349,78239,77925
91354,78560,77929
91360,78120,78232
91365,78303,78104
91371,78299,78049
91376,78594,78032
91382,78072,78306
91388,78431,78046
91393,78265,78326
91399,78537,78022
91406,78181,78327
91410,78307,77901
91415,78345,78498
91421,78754,78447
91427,78584,78146
91432,78440,78135
91438,78265,78434
91443,78493,78169
91449,78319,78113
91455,78402,78050
91460,77909,77813
91466,78123,78129
91471,78244,78056
91477,77915,78240
91482,78039,78452
91488,78065,78273
91494,78282,78191
91499,78279,78215
91507,78300,78514
91510,78555,77960
91516,78559,78073
91521,78740,78415
91527,78743,78439
91533,78596,78186
91538,78461,78726
91544,78606,78526
91550,78670,78843
91555,78759,78555
91561,78885,78958
91566,78731,78968
91572,78831,79229
91577,78780,79386
91583,79356,78971
91588,79363,79179
91594,79626,79305
91600,79433,79334
91607,79334,79421
91611,79597,79175
91616,79624,79276
91622,79589,79322
91628,79788,79588
91633,79842,79391
91639,79873,79509
91644,79876,79422
91650,80211,79807
91656,80173,79877
91661,79934,79924
91667,79945,80132
91672,79725,79925
91678,79950,80110
91683,80229,80114
91689,80046,80216
91695,80290,79919
91700,80038,80444
91707,80342,80217
91711,80815,79892
91717,80740,80222
91723,80713,80173
91728,80258,80325
91734,80325,80306
91739,80214,79773
91745,79954,80412
91750,80109,79852
91756,79481,79616
91762,79543,79406
91767,79683,78984
91773,79127,79296
91778,78785,78797
91784,78595,78123
91790,78078,77864
91795,78005,77821
91801,77399,77620
91807,77130,77348
91812,77353,76616
91817,76692,76998
91823,76355,76592
91829,76068,76257
91834,76207,76019
91840,75674,76031
91845,75623,75896
91851,75687,75666
91857,75512,75412
91862,75642,75465
91868,75759,74918
91873,75631,75238
91879,75307,74717
91884,75138,75226
91890,75805,74956
91896,75300,74800
91901,74959,74962
91907,74916,75022
91912,74749,75115
91918,74634,74652
91923,74941,74772
91929,74806,74717
91935,74765,74710
91940,74859,74518
91946,74443,74587
91951,74391,74400
91957,74477,74090
91963,74522,74118
91968,74314,74289
91974,74593,74394
91979,74058,74180
91985,74282,74265
91990,74365,74215
91996,74626,73965
92006,74551,74233
92007,74700,74304
92013,74275,74188
92018,74600,73996
92024,74765,74078
92030,74655,74250
92035,74446,74420
92041,74608,74290
92046,74262,74710
92052,74786,74405
92058,74591,74634
92063,74510,74589
92069,74367,75105
92074,74759,74764
92080,74787,75088
92085,74530,74653
92091,75107,74598
92096,74613,74842
92107,74778,74777
92108,75005,74465
92113,74747,74543
92119,75020,74457
92124,74671,74851
92130,74933,75077
92136,74789,74803
92141,74836,74670
92147,74875,74808
92152,74964,74781
92158,74919,75035
92164,74849,75028
92169,74779,74853
92175,74979,74722
92180,74919,75211
92186,75058,74911
92191,75044,75019
92197,74892,74924
92207,75157,74751
92208,75376,74553
92214,75277,74796
92219,75153,75060
92225,75313,75139
92230,75405,74726
92236,75166,75014
92242,75374,75202
92247,75322,75044
92253,75404,75236
92258,75178,75282
92264,75255,75237
92270,75465,75500
92275,75727,75368
92281,75551,75670
92286,75814,75284
92292,75488,75233
92297,75667,75449
92307,75975,75169
92309,75829,75635
92314,75929,75526
92320,75964,75937
92325,75670,75600
92331,75881,75831
92337,75594,75425
92342,75484,76171
92348,75769,75962
92353,75691,75987
92359,75992,75928
92364,76267,75930
92370,76326,76076
92376,76131,75952
92381,76293,76011
92387,76374,76079
92392,76539,75909
92398,76295,76328
92407,76496,76321
92409,76591,76369
92415,76399,76030
92420,76207,76400
92426,76179,76141
92432,76102,76228
92437,75809,76062
92443,75859,75684
92448,75659,75980
92454,75536,75615
92459,75228,75122
92465,74892,75136
92471,74859,74108
92476,74738,74356
92482,74119,74151
92487,74084,73402
92493,73947,73218
92499,73327,72613
92507,72739,72783
92510,72864,72312
92515,72498,72674
92521,72351,72032
92526,71937,72013
92532,71927,71647
92538,71636,71663
92543,71464,71383
92549,71060,71362
92554,71614,71519
92560,71163,70895
92565,71092,70996
92571,71134,70996
92577,71017,70467
92582,70848,70525
92588,70552,70464
92593,70691,70072
92599,70590,70191
92606,70486,70430
92610,70171,69763
92616,70217,70159
92621,70439,69762
92627,70065,70078
92632,70259,70600
92638,70171,70067
92644,69820,70112
92649,70215,69776
92655,69897,69927
92660,70216,70296
92666,70096,69779
92671,70192,69625
92677,70100,69815
92683,69773,70003
92688,69924,69914
92694,70162,69402
92699,69656,69758
92707,69664,70059
92711,70143,70092
92716,70023,69754
92722,69867,69689
92727,69969,69942
92733,69752,70123
92739,69958,69759
92744,70064,70036
92750,70111,69786
92755,70020,70376
92761,69848,70290
92766,70174,69890
92772,70357,69668
92778,70255,69664
92783,70705,69924
92789,70068,70341
92794,70108,69690
92800,70195,70047
92807,70144,69997
92811,69883,69941
92817,70147,70566
92822,70051,69971
92828,69802,70039
92833,69979,70137
92839,70241,70129
92845,70248,70289
92850,69916,70108
92856,70268,70123
92861,70520,70352
92867,70543,70091
92873,70776,70270
92878,70470,70168
92884,70587,70000
92889,70535,70258
92895,70235,70313
92900,70506,70487
92907,70395,70379
92912,70458,70482
92917,70335,70765
92923,70518,70685
92928,70549,70847
92934,70536,70346
92939,70520,70832
92945,70638,70785
92951,70390,70704
92956,71056,71009
92962,71189,71010
92967,71617,70860
92973,71053,70694
92979,71487,71237
92984,71334,71227
92990,71270,70913
92995,70941,71370
93001,71732,71106
93007,71482,71182
93012,71667,71125
93018,71586,71542
93023,71518,71769
93029,71698,71700
93034,71664,71860
93040,71508,72045
93046,71834,72006
93051,71605,71912
93057,72007,71804
93062,72184,71905
93068,72179,72085
93073,72323,72281
93079,72592,72086
93085,72382,72164
93090,72414,72614
93096,72836,72427
93106,72779,72522
93107,72882,72627
93112,72467,72274
93118,72773,72438
93124,72931,72571
93129,72787,72574
93135,73055,72723
93141,72881,72263
93146,72762,72875
93152,73043,73432
93157,73003,73390
93163,72904,73781
93168,73001,73144
93174,73449,72849
93179,73327,73225
93185,73533,73349
93191,73396,73031
93196,73297,73323
93207,73849,73441
93207,73960,73502
93213,74293,73741
93219,73923,73602
93224,73960,73410
93230,73991,73732
93235,74199,73637
93241,73883,73839
93247,74160,74177
93252,74269,73772
93258,73984,74095
93263,74212,74395
93269,74028,74616
93274,74366,74533
93280,74812,74988
93286,74942,74454
93291,74588,74575
93297,74740,74683
93307,75051,74662
93308,75062,74767
93313,75184,74355
93319,75322,74838
93325,75145,75042
93330,75620,75133
93336,74987,75252
93341,75126,75100
93347,75258,75279
93353,75622,74620
93358,75358,75128
93364,75510,74979
93369,75460,75506
93375,75595,75706
93381,76005,75581
93386,75935,75777
93392,75704,75749
93397,75826,75841
93406,75811,76010
93408,75823,75961
93414,75917,76046
93420,76344,76193
93425,76303,76262
93431,76422,75993
93436,76404,76377
93442,76188,76049
93447,76241,76061
93453,76212,75792
93459,75842,75875
93464,75815,75434
93470,75309,75178
93475,75041,75133
93481,74741,74735
93487,74635,74690
93492,74268,74128
93498,73856,74028
93507,73400,73620
93509,73220,73154
93515,72865,73406
93520,72480,72587
93526,72718,72132
93531,72143,72369
93537,71985,71943
93542,71940,71504
93548,71884,71375
93553,71744,71474
93559,71370,71421
93565,71118,71155
93570,71397,71354
93576,71188,70726
93582,70890,71306
93587,71110,70827
93593,71139,71069
93598,70811,70897
93607,70870,70730
93609,70897,70765
93615,70702,71276
93621,70647,70518
93626,70524,70918
93632,70537,70423
93637,70575,70227
93643,70736,70560
93648,70396,69961
93654,70090,69810
93660,70661,70169
93665,70240,70268
93671,70239,69640
93676,69944,70107
93682,69909,70105
93688,70015,70087
93693,70037,70494
93699,69915,70479
93706,70101,70306
93710,69913,70182
93715,70399,70080
93721,70468,69909
93727,70278,69935
93732,70305,70104
93738,70571,70262
93743,70158,70238
93749,70634,69908
93755,70463,70587
93760,70445,70303
93766,70380,70457
93771,70550,70446
93777,70416,70320
93782,70360,70240
93788,70619,70651
93794,70469,70259
93799,70365,70497
93807,70348,70168
93810,70016,70394
93816,70381,70758
93822,70711,70423
93827,70520,70366
93833,70526,69883
93838,70468,70115
93844,70748,70379
93850,70485,70720
93855,70602,70656
93861,70835,70316
93866,70554,70606
93872,70735,70578
93877,70974,70632
93883,71122,70702
93889,70984,70648
93894,70645,70799
93900,71260,71142
93907,71295,70725
93911,71164,70933
93916,71318,71285
93922,71306,70946
93928,71103,70924
93933,71365,71050
93939,71315,71306
93944,71334,71455
93950,71311,71355
93956,71423,71314
93961,71358,71628
93967,71571,71551
93972,71544,71643
93978,71772,71861
93983,71610,71778
93989,71894,71658
93995,72036,71794
94000,71935,72150
94007,72237,72268
94011,72056,72170
94017,72312,72215
94023,72386,72204
94028,72399,72268
94034,72016,72391
94039,72406,72661
94045,72395,72461
94050,73047,72822
94056,72668,72722
94062,72870,72389
94067,72682,72797
94073,73292,72939
94078,72842,72785
94084,73150,72904
94090,73321,73031
94095,73324,72923
94101,72931,72695
94107,73100,73044
94112,73195,73061
94117,73207,73253
94123,73395,72981
94129,73643,73321
94134,73391,73465
94140,73636,73923
94145,73655,73608
94151,73911,73551
94156,73680,73607
94162,74205,73806
94168,73974,74001
94173,73859,73837
94179,73897,74096
94184,74478,73604
94190,74306,73846
94196,74278,74114
94201,74322,74410
94207,74085,74381
94212,74140,74550
94218,74521,74441
94224,74705,74371
94229,74632,74351
94235,74662,74817
94240,75050,74896
94246,74711,74675
94251,75166,74907
94257,75359,74830
94263,74740,75031
94268,75188,75047
94274,74938,75196
94279,74994,74759
94285,74826,75003
94290,75048,75144
94296,74926,74580
94307,74590,74679
94307,74615,74626
94313,74838,74338
94318,74160,74222
94324,74205,73732
94330,73783,73518
94335,73571,73114
94341,73255,73510
94346,72852,72725
94352,73034,72546
94358,72905,72276
94363,72563,72699
94369,72160,71945
94374,72217,72198
94380,72117,72032
94385,72164,72056
94391,72251,71526
94396,71975,71490
94407,71576,71469
94408,71518,71517
94413,71563,71151
94419,71726,71505
94424,71578,71660
94430,71406,71744
94436,71347,71301
94441,71106,71926
94447,71205,71349
94452,71464,71436
94458,71464,71460
94464,71503,71425
94469,71340,70974
94475,71449,71014
94480,71658,70868
94486,71372,71126
94491,70842,70982
94497,71097,71259
94507,71262,70746
94508,71239,70721
94514,71328,71080
94519,71198,71315
94525,71302,71009
94530,71590,71480
94536,71629,71201
94542,71237,71571
94547,71108,71740
94553,71406,71383
94558,71435,71499
94564,71493,71112
94570,71585,71479
94575,71893,71535
94581,71761,71306
94586,71628,71762
94592,71402,71901
94597,71653,71785
94606,71426,71349
94609,72038,71642
94614,71898,72166
94620,71637,71281
94625,71594,71603
94631,71980,71536
94637,72061,71458
94642,71832,71421
94648,71866,71630
94653,72201,71753
94659,72050,71490
94664,71882,71805
94670,71525,72043
94676,71804,71883
94681,71759,71915
94687,71954,71834
94692,71805,72286
94698,72024,72071
94707,72254,71781
94709,72128,71756
94715,71989,72243
94720,72744,72037
94726,72189,72127
94731,72578,71930
94737,72090,72054
94743,72539,71996
94748,72404,72098
94754,72611,72370
94759,72982,72719
94765,72565,72596
94771,72310,72764
94776,72374,72836
94782,72568,72715
94787,72788,72841
94793,72934,72779
94799,72957,73084
94807,73286,72994
94810,73147,72685
94815,72992,72997
94821,73188,73416
94826,73492,73303
94832,73404,73347
94838,73411,73496
94843,73173,73118
94849,73544,73162
94854,73413,73531
94860,73872,73630
94865,73707,73909
94871,74213,73715
94877,74020,73664
94882,74125,73621
94888,74162,73630
94893,73925,73797
94899,74118,74024
94907,74170,73934
94910,74263,73813
94916,74273,74009
94921,73909,74295
94927,74060,74368
94932,74122,74464
94938,74356,74582
94944,74646,74165
94949,74611,74864
94955,74842,74317
94960,74182,74225
94966,75015,74740
94972,75124,74480
94977,74790,74536
94983,74985,74484
94988,75137,74603
94994,75012,74761
94999,75090,74741
95007,74964,75111
95011,75061,75373
95016,75270,75270
95022,75120,75561
95027,75396,75414
95033,75262,75509
95038,75472,75527
95044,75711,75495
95050,75737,75893
95055,75872,75835
95061,76001,76239
95067,76045,75657
95072,75569,76058
95078,75811,75677
95083,75703,75668
95089,75516,75202
95094,75210,75181
95100,75756,75183
95107,75534,75257
95111,75119,75271
95117,74954,75282
95122,74697,74904
95128,74373,74585
95133,74222,74179
95139,74086,74316
95145,74060,73673
95150,73749,73284
95156,73744,72897
95161,73185,72738
95167,72818,73056
95172,72969,72693
95178,72695,72305
95184,72400,72555
95189,71944,72128
95195,71827,72369
95200,71934,72200
95207,71877,72092
95212,71951,71928
95217,72084,72044
95223,72026,71920
95228,72144,71622
95234,71963,71786
95239,71593,71533
95245,71605,71385
95251,71675,71908
95256,71959,71286
95262,71459,71286
95267,71383,71015
95273,71274,71333
95279,71172,71200
95284,71281,71127
95290,71059,71407
95295,71167,71243
95301,70875,70755
95307,71079,71278
95312,71210,71031
95318,71244,71141
95323,70998,71189
95329,71082,70924
95334,71368,71016
95340,71163,71035
95346,71329,71074
95351,71270,71275
95357,71338,71078
95362,71382,71089
95368,71164,71078
95373,70868,71056
95379,71374,71734
95385,71537,71212
95390,71305,72109
95396,71432,71542
95406,71357,71750
95407,71357,71566
95412,71424,71346
95418,71292,71493
95424,71585,71376
95429,71905,71284
95435,71587,71030
95440,71839,71342
95446,71559,71448
95452,71659,71425
95457,72055,71179
95463,71719,71319
95468,71816,71724
95474,71468,71283
95479,71682,71549
95485,71803,71254
95491,71809,71936
95496,71619,71541
95507,71644,71716
95507,71664,71884
95513,71672,72167
95519,71835,71909
95524,72383,71915
95530,71738,71993
95535,72176,71670
95541,72097,71874
95547,72064,71912
95552,72261,72210
95558,72327,71901
95563,72471,72289
95569,72374,72048
95574,72045,72152
95580,72396,72654
95586,72646,72757
95591,72762,72764
95597,72475,72552
95607,72917,72653
95608,72665,72622
95614,72860,72582
95619,73035,73020
95625,72962,72724
95630,72882,72699
95636,73002,72741
95641,73314,72713
95647,72988,72868
95653,73142,73180
95658,73231,73196
95664,73016,73309
95669,73280,73301
95675,73393,73377
95681,73894,73494
95686,73721,73553
95692,73841,73429
95697,73915,73360
95707,73820,73342
95708,73904,73327
95714,73762,73352
95720,73820,73567
95725,73943,73535
95731,73964,73288
95736,73875,73813
95742,73895,73918
95747,74001,74248
95753,74076,73969
95759,73726,74269
95764,74228,73927
95770,74052,74100
95775,74632,74173
95781,74486,74417
95787,74444,74352
95792,74828,74311
95798,74476,74101
95807,74973,74150
95809,74532,74713
95815,74402,74863
95820,75144,74500
95826,74787,74799
95831,75004,75035
95837,74976,74824
95842,74897,75140
95848,75108,75037
95853,75015,74750
95859,75365,75040
95865,75576,75137
95870,75528,75327
95876,75551,75038
95881,75738,75167
95887,75430,75230
95893,75516,75353
95898,75492,75548
95907,75956,75731
95909,75408,75917
95915,75845,75784
95921,75284,75826
95926,75764,75828
95932,75728,75872
95937,75943,75508
95943,75680,75707
95949,75603,75141
95954,75446,75187
95960,75510,75259
95965,75401,74884
95971,75125,74444
95976,74774,74432
95982,74371,73814
95988,73993,74247
95993,73281,73473
95999,73424,73609
96006,73466,72888
96010,72878,72877
96015,72911,72687
96021,72235,72215
96027,72071,72281
96032,72043,72315
96038,71846,71951
96043,71859,71680
96049,71747,71622
96055,71815,71242
96060,71474,70899
96066,71392,70864
96071,71085,70726
96077,71072,70683
96082,71206,70605
96088,71021,70953
96094,70193,70676
96099,70648,70750
96107,70650,70455
96110,70316,70982
96116,70311,70632
96122,70196,70393
96127,70256,70223
96133,70266,70253
96138,70091,70291
96144,70200,69947
96149,69788,69773
96155,69610,69519
96161,69481,69086
96166,69741,69398
96172,69466,69167
96177,69383,69474
96183,69341,69173
96189,69448,69256
96194,69055,69183
96200,69555,69652
96207,69657,69541
96211,69949,69987
96216,69698,69406
96222,69569,69636
96228,69824,69333
96233,70115,69565
96239,69694,69618
96244,69678,69493
96250,69800,69782
96255,69823,69542
96261,69709,69279
96267,69618,69793
96272,69527,69712
96278,69712,69952
96283,69571,69613
96289,69868,69677
96295,69999,69900
96300,69695,70228
96307,69636,69849
96311,70083,69679
96317,69749,69564
96322,69899,69806
96328,70000,69502
96334,69901,69572
96339,69941,69261
96345,69871,69809
96350,70046,69625
96356,69834,69983
96362,70001,70032
96367,70154,69869
96373,70054,69975
96378,69859,70216
96384,69991,69914
96389,69678,70103
96395,70241,69795
96401,70118,70307
96407,70482,69905
96412,70165,70318
96417,70328,70300
96423,70319,70032
96429,70583,70242
96434,70706,70260
96440,70866,70237
96445,70639,70369
96451,70642,70029
96457,70682,70513
96462,70730,70625
96468,70862,70719
96473,70998,71053
96479,70846,71095
96484,70668,70884
96490,71099,71198
96496,71023,71137
96501,71109,71442
96507,71225,71306
96512,71231,71639
96518,71413,71339
96523,71763,71317
96529,71712,71705
