timestamp,slotA
367983,142589.0
367994,142461.0
368005,142425.0
368017,142486.0
368028,142433.0
368040,142388.0
368050,142292.0
368061,142517.0
368072,142303.0
368083,141909.0
368095,141880.0
368106,141802.0
368117,141658.0
368128,141457.0
368139,141196.0
368150,141176.0
368161,141029.0
368173,141377.0
368184,141631.0
368195,142447.0
368206,142945.0
368217,143154.0
368228,143403.0
368240,143625.0
368251,143770.0
368262,143556.0
368273,143524.0
368284,143853.0
368295,143945.0
368307,143423.0
368318,143668.0
368329,143434.0
368340,143349.0
368351,143099.0
368362,143181.0
368374,143076.0
368385,142651.0
368396,142430.0
368407,142100.0
368418,142032.0
368429,141753.0
368441,141496.0
368452,141242.0
368463,140971.0
368474,140943.0
368485,140732.0
368496,140831.0
368507,140961.0
368519,141004.0
368530,141070.0
368541,141188.0
368552,141132.0
368563,141043.0
368574,140911.0
368585,140848.0
368597,140650.0
368608,140676.0
368619,140718.0
368630,140435.0
368641,140533.0
368652,140221.0
368664,139938.0
368675,139565.0
368686,139541.0
368697,138967.0
368708,138770.0
368719,138334.0
368731,137998.0
368742,138012.0
368753,138915.0
368764,139974.0
368775,141159.0
368786,141874.0
368797,142236.0
368809,142604.0
368820,142827.0
368831,142789.0
368842,142967.0
368853,142800.0
368864,142964.0
368876,142645.0
368887,142391.0
368898,142527.0
368909,142419.0
368920,142318.0
368931,141986.0
368943,141626.0
368954,141334.0
368965,140913.0
368976,140221.0
368987,140028.0
368998,139554.0
369009,139060.0
369021,138743.0
369032,138389.0
369043,138066.0
369054,137909.0
369065,137910.0
369076,137622.0
369088,137938.0
369099,138104.0
369110,138269.0
369121,138100.0
369132,138417.0
369143,138519.0
369154,138470.0
369166,138383.0
369177,138441.0
369188,138383.0
369199,138376.0
369210,138537.0
369221,138779.0
369233,137980.0
369244,138008.0
369255,137879.0
369266,137894.0
369277,137752.0
369288,137563.0
369299,137589.0
369311,137601.0
369322,137882.0
369333,138927.0
369344,140286.0
369355,141210.0
369366,141825.0
369378,141959.0
369389,142231.0
369400,142387.0
369411,142375.0
369422,142342.0
369433,142386.0
369445,142501.0
369456,142414.0
369467,142360.0
369478,142147.0
369489,142077.0
369500,141855.0
369512,141883.0
369523,141306.0
369534,141072.0
369545,140819.0
369556,140433.0
369567,140065.0
369578,139780.0
369590,139557.0
369601,139193.0
369612,139140.0
369623,139261.0
369634,139200.0
369645,139238.0
369656,139235.0
369668,139294.0
369679,139401.0
369690,139517.0
369701,139275.0
369712,139523.0
369723,139437.0
369740,139704.0
369746,139182.0
369757,139427.0
369768,139285.0
369779,139346.0
369790,139218.0
369801,139056.0
369813,138893.0
369824,138709.0
369840,138536.0
369846,138316.0
369857,138183.0
369868,137949.0
369880,137928.0
369891,138153.0
369902,138538.0
369913,139669.0
369924,140709.0
369940,141484.0
369947,141833.0
369958,142018.0
369969,142305.0
369980,142314.0
369991,142410.0
370002,142297.0
370014,142363.0
370025,142329.0
370039,142268.0
370047,142300.0
370058,142103.0
370069,141976.0
370080,141822.0
370092,141580.0
370103,141345.0
370114,140995.0
370125,140695.0
370140,140410.0
370147,140044.0
370158,139614.0
370170,139398.0
370181,139050.0
370192,139207.0
370203,139262.0
370214,139216.0
370225,139106.0
370239,139275.0
370248,139252.0
370259,139377.0
370270,139604.0
370281,139601.0
370292,139491.0
370304,139477.0
370315,139679.0
370326,139572.0
370340,139496.0
370348,139499.0
370359,139459.0
370370,139232.0
370382,139028.0
370393,138870.0
370404,138693.0
370415,138617.0
370426,138319.0
370440,138164.0
370449,137948.0
370460,137838.0
370471,137592.0
370482,137554.0
370493,137957.0
370504,138951.0
370515,140174.0
370527,141031.0
370540,141788.0
370549,141923.0
370560,142319.0
370571,142575.0
370582,142652.0
370594,142597.0
370605,141997.0
370616,142602.0
370627,142525.0
370640,142439.0
370649,142447.0
370661,142393.0
370672,142099.0
370683,141925.0
370694,141720.0
370705,141369.0
370716,141236.0
370728,140851.0
370739,140366.0
370750,139991.0
370761,139704.0
370772,139462.0
370783,139535.0
370794,139395.0
370805,139445.0
370817,139589.0
370828,139605.0
370840,139793.0
370850,139990.0
370861,140019.0
370872,140062.0
370884,140243.0
370895,140208.0
370906,140400.0
370917,140238.0
370928,140322.0
370940,140244.0
370951,139956.0
370962,140069.0
370973,139984.0
370984,139916.0
370995,139959.0
371006,139813.0
371018,139676.0
371029,139561.0
371040,139501.0
371051,139297.0
371062,139296.0
371073,139127.0
371084,138723.0
371096,139230.0
371107,139483.0
371118,140360.0
371129,141335.0
371140,142277.0
371151,142375.0
371163,142892.0
371174,142946.0
371185,143082.0
371196,143317.0
371207,143268.0
371218,143229.0
371230,143353.0
371241,143212.0
371252,143094.0
371263,143127.0
371274,142892.0
371285,142876.0
371296,142658.0
371308,142539.0
371319,142306.0
371330,142124.0
371341,141954.0
371352,141840.0
371363,141500.0
371374,141464.0
371386,141338.0
371397,141254.0
371408,141151.0
371419,141158.0
371430,141171.0
371441,141460.0
371453,141608.0
371464,141484.0
371475,141610.0
371486,141671.0
371497,141696.0
371508,141822.0
371519,141844.0
371531,141828.0
371542,141803.0
371553,141783.0
371564,141577.0
371575,141651.0
371587,141488.0
371598,141508.0
371609,141293.0
371620,141283.0
371631,141060.0
371642,141001.0
371653,140876.0
371665,140893.0
371676,140549.0
371687,140498.0
371698,140493.0
371709,140632.0
371720,141077.0
371732,141831.0
371743,142373.0
371754,142785.0
371765,142973.0
371776,143384.0
371787,143594.0
371798,143545.0
371810,143849.0
371821,143698.0
371832,143798.0
371843,143742.0
371854,143777.0
371865,143495.0
371876,143452.0
371888,143366.0
371899,143286.0
371910,143226.0
371921,143116.0
371932,142921.0
371943,142704.0
371955,142740.0
371966,142407.0
371977,142300.0
371988,142031.0
371999,142098.0
372010,141971.0
372022,141957.0
372033,141903.0
372044,141867.0
372055,142173.0
372066,142172.0
372077,142284.0
372089,142334.0
372100,142186.0
372111,142331.0
372122,142408.0
372133,142386.0
372144,142421.0
372156,142413.0
372167,142352.0
372178,142118.0
372189,142208.0
372200,141886.0
372211,142028.0
372222,141903.0
372234,141819.0
372245,141905.0
372256,141648.0
372267,141469.0
372278,141524.0
372289,141595.0
372301,142063.0
372312,142591.0
372323,143018.0
372334,143445.0
372345,143881.0
372356,143864.0
372367,143946.0
372379,144089.0
372390,144015.0
372401,144150.0
372412,144074.0
372423,144002.0
372440,143830.0
372445,143828.0
372457,143877.0
372468,143872.0
372479,143718.0
372490,143604.0
372501,143483.0
372512,143361.0
372524,143171.0
372540,142907.0
372546,142768.0
372557,142543.0
372568,142413.0
372579,142307.0
372591,142505.0
372602,142308.0
372613,142450.0
372624,142264.0
372639,142427.0
372646,142466.0
372657,142640.0
372669,142730.0
372680,142756.0
372691,142643.0
372702,142809.0
372713,142592.0
372724,142455.0
372740,142586.0
372747,142670.0
372758,142430.0
372769,142575.0
372780,142547.0
372791,142461.0
372802,142352.0
372814,142355.0
372825,142370.0
372840,142566.0
372847,142690.0
372858,143214.0
372869,143708.0
372881,143799.0
372892,144132.0
372903,144417.0
372914,144566.0
372925,144722.0
372940,144901.0
372947,145003.0
372959,144970.0
372970,145149.0
372981,144976.0
372992,144971.0
373003,144774.0
373014,144684.0
373026,144659.0
373040,144549.0
373048,144374.0
373059,144339.0
373070,144211.0
373081,143956.0
373093,143924.0
373104,143802.0
373115,143757.0
373126,143673.0
373140,143673.0
373148,143710.0
373160,143746.0
373171,143640.0
373182,143802.0
373193,143739.0
373204,143833.0
373215,143889.0
373226,143949.0
373240,143945.0
373249,143907.0
373260,143838.0
373271,143818.0
373282,143844.0
373293,143853.0
373305,143962.0
373316,143796.0
373327,143565.0
373339,143668.0
373349,143567.0
373360,143589.0
373371,143367.0
373383,143394.0
373394,143797.0
373405,144081.0
373416,144663.0
373427,145062.0
373440,145525.0
373449,145765.0
373461,145931.0
373472,146208.0
373483,146219.0
373494,146429.0
373505,146529.0
373516,146490.0
373528,146556.0
373540,146360.0
373550,146421.0
373561,146268.0
373572,146300.0
373583,146121.0
373594,146081.0
373606,145799.0
373617,145715.0
373628,145489.0
373640,145454.0
373650,145425.0
373661,145328.0
373673,145219.0
373684,145152.0
373695,145145.0
373706,145279.0
373717,145156.0
373728,145276.0
373740,145264.0
373751,145340.0
373762,145334.0
373773,145482.0
373784,145424.0
373795,145470.0
373807,145407.0
373818,145303.0
373829,145294.0
373840,145191.0
373851,145163.0
373862,145171.0
373873,145059.0
373885,145005.0
373896,144892.0
373907,144681.0
373918,144623.0
373929,144570.0
373940,144753.0
373951,144929.0
373963,145843.0
373974,145891.0
373985,146361.0
373996,146705.0
374007,147096.0
374018,147326.0
374030,147516.0
374041,147693.0
374052,147797.0
374063,147769.0
374074,147765.0
374085,147869.0
374096,147866.0
374108,147838.0
374119,147654.0
374130,147555.0
374141,147571.0
374152,147443.0
374163,147257.0
374175,147227.0
374186,147023.0
374197,146972.0
374208,146745.0
374219,146788.0
374230,146636.0
374242,146656.0
374253,146572.0
374264,146490.0
374275,146528.0
374286,146691.0
374297,146580.0
374309,146646.0
374320,146626.0
374331,146599.0
374342,146671.0
374353,146563.0
374364,146604.0
374375,146479.0
374387,146378.0
374398,146398.0
374409,146218.0
374420,146291.0
374431,145930.0
374442,146097.0
374453,145851.0
374465,145629.0
374476,145532.0
374487,145310.0
374498,145121.0
374509,145010.0
374520,144816.0
374532,144893.0
374543,144506.0
374554,145535.0
374565,146286.0
374576,146778.0
374587,147317.0
374598,147184.0
374610,147974.0
374621,148104.0
374632,148339.0
374643,148243.0
374654,148293.0
374666,148360.0
374677,148283.0
374688,148225.0
374699,148197.0
374710,148135.0
374721,148025.0
374732,147777.0
374744,147753.0
374755,147721.0
374766,147436.0
374777,147329.0
374788,147162.0
374799,146975.0
374811,146758.0
374822,146789.0
374833,146643.0
374844,147368.0
374855,146698.0
374866,146769.0
374877,146684.0
374889,146579.0
374900,146870.0
374911,146874.0
374922,146761.0
374933,146647.0
374944,146725.0
374955,146637.0
374967,146653.0
374978,146660.0
374989,146310.0
375000,146322.0
375011,146256.0
375022,146257.0
375034,146108.0
375045,145816.0
375056,145822.0
375067,145741.0
375078,145694.0
375089,145467.0
375101,145248.0
375112,145229.0
375123,145038.0
375134,144998.0
375145,144759.0
375156,144753.0
375168,144944.0
375179,145617.0
375190,146107.0
375201,146672.0
375212,147286.0
375223,147502.0
375240,147885.0
375246,147992.0
375257,148287.0
375268,148121.0
375279,148336.0
375290,148358.0
375301,148343.0
375313,148174.0
375324,147967.0
375340,148135.0
375346,147994.0
375357,147969.0
375368,147833.0
375379,147708.0
375391,147501.0
375402,147327.0
375413,147345.0
375424,147136.0
375440,147055.0
375446,147006.0
375458,146882.0
375469,147021.0
375480,146935.0
375491,146936.0
375502,147081.0
375513,147048.0
375524,146976.0
375539,147062.0
375547,147033.0
375558,147162.0
375569,147019.0
375580,147145.0
375591,147040.0
375603,146881.0
375614,146783.0
375625,146861.0
375640,146831.0
375647,146642.0
375658,146372.0
375669,146512.0
375681,146363.0
375692,146082.0
375703,146058.0
375714,145990.0
375725,145936.0
375739,145705.0
375747,145715.0
375759,145587.0
375770,145552.0
375781,145501.0
375792,145386.0
375803,144912.0
375814,145247.0
375826,145571.0
375840,146194.0
375848,146417.0
375859,147064.0
375870,147506.0
375881,147632.0
375892,147865.0
375904,148007.0
375915,148220.0
375926,148338.0
375939,148289.0
375948,148284.0
375959,148320.0
375971,148361.0
375982,148192.0
375993,148247.0
376004,148051.0
376015,147929.0
376026,147707.0
376040,147688.0
376049,147522.0
376060,147245.0
376071,147168.0
376082,146993.0
376093,146934.0
376105,146764.0
376116,146784.0
376127,146839.0
376140,146663.0
376149,146917.0
376160,146823.0
376171,146992.0
376183,146872.0
376194,146919.0
376205,146988.0
376216,146731.0
376227,147018.0
376240,146681.0
376249,146675.0
376261,146660.0
376272,146633.0
376283,146731.0
376294,146496.0
376305,146321.0
376316,146304.0
376328,146238.0
376340,146028.0
376350,145848.0
376361,145767.0
376372,145767.0
376383,145658.0
376394,145319.0
376406,145216.0
376417,144989.0
376428,144888.0
376440,144910.0
376450,144942.0
376461,145372.0
376473,145841.0
376484,146457.0
376495,146877.0
376506,147253.0
376517,147630.0
376528,147750.0
376540,147893.0
376551,147974.0
376562,147974.0
376573,147998.0
376584,148051.0
376595,147957.0
376607,147908.0
376618,147883.0
376629,147775.0
376640,147602.0
376651,147483.0
376662,147328.0
376673,147220.0
376685,147074.0
376696,146916.0
376707,146739.0
376718,146574.0
376729,146550.0
376740,146655.0
376751,146664.0
376763,146726.0
376774,146625.0
376785,146705.0
376796,146783.0
376807,146866.0
376818,146876.0
376829,146692.0
376841,146808.0
376852,146733.0
376863,146726.0
376874,146697.0
376885,146573.0
376896,146593.0
376908,146404.0
376919,146390.0
376930,146234.0
376941,146240.0
376952,146321.0
376963,146193.0
376975,146122.0
376986,145980.0
376997,146083.0
377008,145807.0
377019,145774.0
377030,145785.0
377042,145909.0
377053,146304.0
377064,146467.0
377075,146887.0
377086,147234.0
377097,147738.0
377109,147651.0
377120,148055.0
377131,148304.0
377142,148751.0
377153,148382.0
377164,148541.0
377175,148542.0
377187,148500.0
377198,148232.0
377209,148391.0
377220,148396.0
377231,148137.0
377242,148356.0
377253,148135.0
377265,147889.0
377276,147825.0
377287,147685.0
377298,147732.0
377309,147420.0
377320,147660.0
377331,147451.0
377343,147536.0
377354,147405.0
377365,147378.0
377376,147512.0
377387,147497.0
377398,147517.0
377410,147548.0
377421,147569.0
377432,147436.0
377443,147552.0
377454,147312.0
377465,147329.0
377477,147400.0
377488,147183.0
377499,147191.0
377510,147077.0
377521,147045.0
377532,146999.0
377543,146837.0
377555,146789.0
377566,146663.0
377577,146313.0
377588,146610.0
377599,146750.0
377610,147091.0
377622,147326.0
377633,147794.0
377644,148048.0
377655,148250.0
377666,148584.0
377677,148435.0
377688,148714.0
377700,148772.0
377711,148817.0
377722,148866.0
377733,148738.0
377744,148787.0
377755,148690.0
377767,148635.0
377778,148593.0
377789,148419.0
377800,148323.0
377811,148241.0
377822,147898.0
377834,148104.0
377845,147945.0
377856,147838.0
377867,147714.0
377878,147697.0
377889,147545.0
377901,147615.0
377912,147707.0
377923,147416.0
377934,147576.0
377945,147465.0
377956,147704.0
377967,147487.0
377979,147367.0
377990,147418.0
378001,147347.0
378012,147476.0
378023,147251.0
378039,147064.0
378045,147160.0
378057,147100.0
378068,147111.0
378079,146935.0
378090,146724.0
378101,146864.0
378112,146612.0
378124,146468.0
378140,146488.0
378146,146378.0
378157,146365.0
378168,146284.0
378179,146689.0
378190,147124.0
378202,147365.0
378213,147858.0
378224,148084.0
378240,148278.0
378246,148399.0
378257,148273.0
378269,148682.0
378280,148762.0
378291,148566.0
378302,148642.0
378313,148542.0
378324,148480.0
378340,148444.0
378347,148283.0
378358,148382.0
378369,148106.0
378380,148097.0
378391,147901.0
378403,148275.0
378414,147815.0
378425,147623.0
378440,147628.0
378447,147455.0
378458,147524.0
378469,147533.0
378480,147336.0
378492,147362.0
378503,147227.0
378514,147289.0
378525,147231.0
378540,147258.0
378547,147174.0
378559,147173.0
378570,147057.0
378581,147016.0
378592,146745.0
378603,146973.0
378614,146802.0
378625,146671.0
378640,146657.0
378648,146456.0
378659,146258.0
378670,146298.0
378681,146123.0
378692,145802.0
378704,145918.0
378715,145896.0
378726,145707.0
378740,145537.0
378748,145421.0
378759,145338.0
378771,145349.0
378782,145239.0
378793,145024.0
378804,144826.0
378815,144974.0
378826,145260.0
378840,145538.0
378849,146032.0
378860,146558.0
378871,146899.0
378882,147034.0
378893,147554.0
378904,147550.0
378916,147807.0
378927,147864.0
378940,147804.0
378949,147850.0
378960,147765.0
378971,147655.0
378982,147493.0
378994,147470.0
379005,147472.0
379016,147491.0
379027,147409.0
379040,147307.0
379049,147096.0
379060,146973.0
379072,146966.0
379083,146732.0
379094,146656.0
379105,146616.0
379116,146497.0
379127,146478.0
379140,146314.0
379150,146388.0
379161,146321.0
379172,146390.0
379183,146286.0
379194,146260.0
379206,146297.0
379217,146168.0
379228,146056.0
379240,146236.0
379250,145957.0
379261,145972.0
379273,145937.0
379284,145756.0
379295,145784.0
379306,145580.0
379317,145802.0
379328,145485.0
379340,145282.0
379351,145160.0
379362,145150.0
379373,145170.0
379384,144996.0
379395,144765.0
379406,144711.0
379418,144662.0
379429,144550.0
379440,144555.0
379451,144444.0
379462,144344.0
379473,144256.0
379484,144223.0
379496,144123.0
379507,144016.0
379518,144198.0
379529,144126.0
379540,143935.0
379551,144045.0
379563,144502.0
379574,144934.0
379585,145326.0
379596,145654.0
379607,146075.0
379618,146318.0
379629,146497.0
379641,146584.0
379652,146478.0
379663,146553.0
379674,146615.0
379685,146365.0
379696,146259.0
379708,146423.0
379719,146112.0
379730,146181.0
379741,146130.0
379752,145994.0
379763,145894.0
379774,145729.0
379786,145499.0
379797,145812.0
379808,145455.0
379819,145431.0
379830,145087.0
379841,144995.0
379852,145190.0
379864,145186.0
379875,145123.0
379886,144977.0
379897,144366.0
379908,145148.0
379919,145130.0
379931,144953.0
379942,144933.0
379953,144941.0
379964,144854.0
379975,144897.0
379986,144862.0
379997,144694.0
380009,144759.0
380020,144538.0
380031,144123.0
380042,144441.0
380053,144145.0
380064,144204.0
380076,144170.0
380087,144048.0
380098,143896.0
380109,144023.0
380120,143945.0
380131,144060.0
380143,143825.0
380154,143751.0
380165,143641.0
380176,143846.0
380187,143536.0
380198,143543.0
380210,143582.0
380221,143384.0
380232,143145.0
380243,143371.0
380254,143530.0
380265,144143.0
380276,144310.0
380288,144426.0
380299,144937.0
380310,145039.0
380321,145421.0
380332,145627.0
380343,145669.0
380354,145721.0
380366,145689.0
380377,145776.0
380388,145700.0
380399,145675.0
380410,145543.0
380421,145516.0
380432,145468.0
380444,145388.0
380455,145229.0
380466,145251.0
380477,145126.0
380488,144934.0
380499,144877.0
380511,144684.0
380522,144881.0
380533,144636.0
380544,144504.0
380555,144613.0
380567,144542.0
380578,144482.0
380589,144551.0
380600,144330.0
380611,144730.0
380622,144407.0
380633,144402.0
380645,144481.0
380656,144239.0
380667,144289.0
380678,144423.0
380689,144221.0
380700,144208.0
380711,144316.0
380723,144047.0
380734,144140.0
380745,143868.0
380756,143766.0
380767,143733.0
380778,143944.0
380789,143759.0
380801,143606.0
380812,143652.0
380823,143614.0
380834,143451.0
380845,143493.0
380856,143367.0
380868,143304.0
380879,143226.0
380890,143361.0
380901,143216.0
380912,143134.0
380923,143130.0
380940,143052.0
380946,142785.0
380957,142904.0
380968,142847.0
380979,142868.0
380990,142965.0
381002,143208.0
381013,143585.0
381024,143886.0
381040,144208.0
381046,144411.0
381057,144824.0
381068,144872.0
381080,144994.0
381091,145112.0
381102,145132.0
381113,145194.0
381124,145190.0
381139,145379.0
381146,144945.0
381158,145081.0
381169,145053.0
381180,145789.0
381191,144744.0
381202,144697.0
381213,144575.0
381224,144570.0
381240,144309.0
381247,144308.0
381258,144161.0
381269,144207.0
381280,143888.0
381291,144111.0
381303,144014.0
381314,144009.0
381325,144034.0
381340,144044.0
381347,143920.0
381358,144150.0
381370,144124.0
381381,143971.0
381392,144107.0
381403,144091.0
381414,144047.0
381425,143984.0
381440,144027.0
381448,144134.0
381459,143984.0
381470,143878.0
381481,143938.0
381492,143756.0
381503,143699.0
381515,143781.0
381526,143475.0
381540,143536.0
381548,143429.0
381559,143545.0
381570,143499.0
381581,143349.0
381593,143322.0
381604,143134.0
381615,143066.0
381626,143294.0
381639,143041.0
381648,143169.0
381659,142951.0
381671,142924.0
381682,142822.0
381693,143033.0
381704,142976.0
381715,143438.0
381726,143696.0
381740,143929.0
381749,144162.0
381760,144707.0
381771,144562.0
381782,144887.0
381793,144995.0
381805,144956.0
381816,144978.0
381827,145019.0
381839,145171.0
381849,145080.0
381860,144940.0
381872,144832.0
381883,144805.0
381894,144658.0
381905,144869.0
381916,144417.0
381927,144628.0
381940,144361.0
381949,144348.0
381961,144154.0
381972,144137.0
381983,144116.0
381994,144118.0
382005,144241.0
382016,144024.0
382028,144034.0
382040,144075.0
382050,144023.0
382061,144307.0
382072,144056.0
382083,144113.0
382094,143943.0
382106,143986.0
382117,144178.0
382128,143903.0
382140,143899.0
382150,143928.0
382162,143849.0
382173,143905.0
382184,143759.0
382195,143697.0
382206,143793.0
382217,143719.0
382228,143694.0
382240,143546.0
382251,143424.0
382262,143477.0
382273,143534.0
382284,143462.0
382295,143283.0
382307,143199.0
382318,143120.0
382329,143112.0
382340,143177.0
382351,143165.0
382362,143146.0
382373,143432.0
382385,143789.0
382396,143854.0
382407,144391.0
382418,144574.0
382429,144874.0
382440,145119.0
382451,145137.0
382463,145192.0
382474,145268.0
382485,145184.0
382496,145305.0
382507,145207.0
382518,145243.0
382530,145157.0
382541,145165.0
382552,144993.0
382563,144919.0
382574,144750.0
382585,144692.0
382596,144744.0
382608,144504.0
382619,144297.0
382630,144210.0
382641,144245.0
382652,144064.0
382664,143947.0
382675,144118.0
382686,144102.0
382697,143992.0
382708,144107.0
382719,144035.0
382730,144096.0
382742,144013.0
382753,144080.0
382764,144107.0
382775,143909.0
382786,143827.0
382797,143809.0
382809,143788.0
382820,143699.0
382831,143639.0
382842,143623.0
382853,143491.0
382864,143583.0
382875,143253.0
382887,143307.0
382898,143213.0
382909,143311.0
382920,143054.0
382931,143076.0
382942,142994.0
382953,142953.0
382965,143039.0
382976,142800.0
382987,142675.0
382998,142665.0
383009,142676.0
383020,142914.0
383032,142394.0
383043,142403.0
383054,142455.0
383065,142827.0
383076,143342.0
383087,143548.0
383099,144049.0
383110,144196.0
383121,144530.0
383132,144835.0
383143,144923.0
383154,144972.0
383165,144949.0
383177,145107.0
383188,144895.0
383199,144988.0
383210,144994.0
383221,144896.0
383232,144764.0
383243,144708.0
383255,144641.0
383266,144456.0
383277,144457.0
383288,144326.0
383299,144360.0
383310,144187.0
383322,144062.0
383333,144037.0
383344,143855.0
383355,143822.0
383366,143831.0
383377,143875.0
383388,143938.0
383400,143875.0
383411,143897.0
383422,143793.0
383433,143875.0
383444,143840.0
383455,144010.0
383467,143836.0
383478,143853.0
383489,143699.0
383500,143651.0
383511,143760.0
383522,143593.0
383534,143568.0
383545,143572.0
383556,143374.0
383567,143256.0
383578,143265.0
383589,143104.0
383600,143183.0
383612,142981.0
383623,142870.0
383634,142790.0
383645,142505.0
383656,142464.0
383667,142538.0
383678,142448.0
383690,142223.0
383701,142353.0
383712,142295.0
383723,142309.0
383739,141970.0
383745,142107.0
383757,141955.0
383768,141941.0
383779,142065.0
383790,142318.0
383801,142907.0
383812,143323.0
383823,143560.0
383840,143968.0
383846,144029.0
383857,144263.0
383868,144526.0
383879,144888.0
383890,144780.0
383902,144777.0
383913,144666.0
383924,144709.0
383939,144848.0
383946,144520.0
383957,144522.0
383969,144474.0
383980,144460.0
383991,144345.0
384002,144247.0
384013,144025.0
384024,144163.0
384040,144031.0
384047,143979.0
384058,143743.0
384069,143716.0
384080,143824.0
384091,143703.0
384102,143799.0
384113,143696.0
384125,143636.0
384140,143711.0
384147,143729.0
384158,143789.0
384169,143807.0
384180,143892.0
384192,143747.0
384203,143609.0
384214,143768.0
384225,143651.0
384240,143551.0
384247,143687.0
384259,143777.0
384270,143470.0
384281,143446.0
384292,143325.0
384303,143167.0
384314,143294.0
384326,143041.0
384340,143113.0
384348,142997.0
384359,142790.0
384370,142824.0
384381,142785.0
384392,142624.0
384404,142601.0
384415,142486.0
384426,142536.0
384439,142311.0
384448,142327.0
384459,142369.0
384470,142143.0
384482,142331.0
384493,142655.0
384504,143127.0
384515,143377.0
384526,143710.0
384540,143868.0
384548,144344.0
384560,144444.0
384571,144594.0
384582,144783.0
384593,144894.0
384604,144819.0
384615,145101.0
384627,144956.0
384640,144851.0
384649,144993.0
384660,144712.0
384671,144695.0
384682,144529.0
384694,144421.0
384705,144231.0
384716,144323.0
384727,144038.0
384740,143951.0
384749,143876.0
384761,143859.0
384772,143869.0
384783,143779.0
384794,143619.0
384805,143788.0
384816,143771.0
384827,143747.0
384840,143699.0
384850,143751.0
384861,143808.0
384872,143813.0
384883,143790.0
384894,143720.0
384905,143846.0
384917,143614.0
384928,143761.0
384940,143710.0
384950,143590.0
384961,143497.0
384972,143514.0
384983,143359.0
384995,143185.0
385006,143131.0
385017,143206.0
385028,142961.0
385040,142772.0
385051,142942.0
385062,142845.0
385073,142666.0
385084,142715.0
385095,142534.0
385106,142562.0
385117,142350.0
385129,142443.0
385140,142391.0
385151,142178.0
385162,142096.0
385173,142097.0
385184,141880.0
385196,141930.0
385207,142062.0
385218,141953.0
385229,142736.0
385240,143275.0
385251,143700.0
385262,143936.0
385273,144172.0
385285,144538.0
385296,144796.0
385307,144928.0
385318,145128.0
385329,145155.0
385340,145188.0
385352,145151.0
385363,145157.0
385374,144963.0
385385,144883.0
385396,144847.0
385407,144697.0
385419,144660.0
385430,144641.0
385441,144547.0
385452,144370.0
385463,144102.0
385474,144242.0
385486,144173.0
385497,144050.0
385508,144178.0
385519,143740.0
385530,144020.0
385541,143981.0
385553,143953.0
385564,143745.0
385575,144060.0
385586,143973.0
385597,143821.0
385608,143924.0
385619,143933.0
385631,144044.0
385642,143962.0
385653,143876.0
385664,143794.0
385675,143797.0
385686,143780.0
385697,143760.0
385709,143753.0
385720,143573.0
385731,143533.0
385742,143579.0
385753,143407.0
385764,143304.0
385775,143324.0
385787,143349.0
385798,143169.0
385809,143055.0
385820,143058.0
385831,142879.0
385842,142933.0
385854,142591.0
385865,142767.0
385876,142794.0
385887,142684.0
385898,142644.0
385909,142488.0
385921,142670.0
385932,142877.0
385943,143399.0
385954,143736.0
385965,143975.0
385976,144351.0
385988,144612.0
385999,144793.0
386010,145071.0
386021,145160.0
386032,145344.0
386043,145674.0
386054,145600.0
386066,145494.0
386077,145448.0
386088,145366.0
386099,145373.0
386110,145254.0
386121,145092.0
386133,144988.0
386144,145043.0
386155,144790.0
386166,144566.0
386177,144419.0
386188,144296.0
386199,144391.0
386210,144212.0
386222,144230.0
386233,144275.0
386244,144158.0
386255,144109.0
386266,144200.0
386277,144101.0
386289,144496.0
386300,144271.0
386311,144257.0
386322,144245.0
386333,144291.0
386344,144135.0
386356,144150.0
386367,144165.0
386378,143949.0
386389,144074.0
386400,143996.0
386411,143831.0
386423,143862.0